time_ms,I,II,III,aVR,aVL,aVF,V1,V2,V3,V4,V5,V6
0.0,0.0,0.0,0.0,0.0,0.0,0.0,0.0,0.0,0.0,0.0,1.5,0.0
1.0,0.0,0.0,0.0,0.0,0.0,0.0,0.0,0.0,0.0,1.0,2.0,0.0
2.0,0.0,0.0,0.0,0.0,0.0,0.0,0.0,0.0,0.0,1.0,2.0,0.0
3.0,0.0,0.0,0.0,0.0,0.0,0.0,0.0,0.0,0.0,1.0,2.0,0.0
4.0,0.0,0.0,0.0,0.0,0.0,0.0,0.0,0.0,0.0,1.0,2.0,0.0
5.0,0.0,0.0,0.0,0.0,0.0,0.0,0.0,0.0,0.0,1.0,2.0,0.0
6.0,0.0,0.0,0.0,0.0,0.0,0.0,0.0,0.0,0.0,1.0,2.0,0.0
7.0,0.0,0.0,0.0,0.0,0.0,0.0,0.0,0.0,0.0,1.0,2.0,0.0
8.0,0.0,0.0,0.0,0.0,0.0,0.0,0.0,0.0,0.0,1.0,2.0,0.0
9.0,0.0,0.0,0.0,0.0,0.0,0.0,0.0,0.0,0.0,1.0,2.0,0.0
10.0,0.0,0.0,0.0,0.0,0.0,0.0,0.0,0.0,0.0,1.0,2.0,0.0
11.0,0.0,0.0,0.0,0.0,0.0,0.0,0.0,0.0,0.0,1.0,2.0,0.0
12.0,0.0,0.0,0.0,0.0,0.0,0.0,0.0,0.0,0.0,1.0,2.0,0.0
13.0,0.0,0.0,0.0,0.0,0.0,0.0,0.0,0.0,0.0,1.0,2.0,0.0
14.0,0.0,0.0,0.0,0.0,0.0,0.0,0.0,0.0,0.0,1.0,2.0,0.0
15.0,0.0,0.0,0.0,0.0,0.0,0.0,0.0,0.0,0.0,1.0,2.0,0.0
16.0,0.0,0.0,0.0,0.0,0.0,0.0,0.0,0.0,0.0,1.0,2.0,0.0
17.0,0.0,0.0,0.0,0.0,0.0,0.0,0.0,0.10499999999999951,0.0,1.0,2.0,0.0
18.0,0.0,0.0,0.0,0.0,0.0,0.0,0.0,0.6699999999999988,0.0,1.0,2.0,0.0
19.0,0.0,0.0,0.0,0.0,0.0,0.0,0.0,1.0,0.0,1.0,2.0,0.0
20.0,0.0,0.0,0.0,0.0,0.0,0.0,0.0,1.0,0.0,1.0,2.0,0.0
21.0,0.0,0.0,0.0,0.0,0.0,0.0,0.0,1.0,0.0,1.0,2.0,0.0
22.0,0.0,0.0,0.0,0.0,0.0,0.0,0.0,0.14000000000000346,0.0,1.0,2.0,0.0
23.0,0.0,0.0,0.0,0.0,0.0,0.0,0.0,0.0,0.0,1.0,2.0,0.0
24.0,0.0,0.0,0.0,0.0,0.0,0.0,0.0,0.0,0.0,1.0,2.0,0.0
25.0,0.0,0.0,0.0,0.0,0.0,0.0,0.0,0.0,0.0,1.0,2.0,0.0
26.0,0.0,0.0,0.0,0.0,0.0,0.0,0.0,0.0,0.0,1.0,2.0,0.0
27.0,0.0,0.0,0.0,0.0,0.0,0.0,0.0,0.0,0.0,1.0,2.0,0.0
28.0,0.0,0.0,0.0,0.0,0.0,0.0,0.0,0.0,0.0,1.0,2.0,0.0
29.0,0.0,0.0,0.0,0.0,0.0,0.0,0.0,0.3849999999999982,0.0,1.0,2.0,0.0
30.0,0.0,0.0,0.0,0.0,0.0,0.0,0.0,0.9499999999999986,0.0,1.0,2.0,0.0
31.0,0.0,0.0,0.0,0.0,0.0,0.0,0.0,1.0,0.0,1.0,2.0,0.0
32.0,0.0,0.0,0.0,0.0,0.0,0.0,0.0,1.0,0.0,1.0,2.0,0.0
33.0,0.0,0.0,0.0,0.0,0.0,0.0,0.0,1.0,0.0,1.0,2.0,0.0
34.0,0.0,0.0,0.0,0.0,0.0,0.0,0.0,1.0,0.0,1.0,2.0,0.0
35.0,0.0,0.0,0.0,0.0,0.0,0.0,0.0,1.0,0.5499999999999952,1.0,2.0,0.0
36.0,0.0,0.0,0.0,0.0,0.0,0.0,0.0,1.0,1.0,1.0,2.0,0.0
37.0,0.0,0.0,0.0,0.0,0.0,0.0,0.0,1.0,1.0,1.0,2.0,0.0
38.0,0.0,0.0,0.0,0.0,0.0,0.0,0.0,1.0,1.0,1.0,2.0,0.0
39.0,0.0,0.0,0.0,0.0,0.0,0.0,0.0,1.0,1.0,1.0,2.0,0.0
40.0,0.0,0.0,0.0,0.0,0.0,0.0,0.0,1.0,1.0,1.0,2.0,0.0
41.0,0.0,0.0,0.0,0.0,0.0,0.0,0.0,1.0,1.0,1.0,2.0,0.0
42.0,0.0,0.0,0.0,0.0,0.0,0.0,0.0,1.0,1.0,1.0,2.0,0.0
43.0,0.0,0.0,0.0,0.0,0.0,0.0,0.0,1.0,1.0,1.0,2.0,-0.5899999999999961
44.0,0.0,0.0,0.0,0.0,0.0,0.0,0.0,1.0,1.0,1.0,2.0,-1.0
45.0,0.0,0.0,0.0,0.0,0.0,0.0,0.0,1.0,1.0,1.0,2.0,-1.0
46.0,0.0,0.0,0.0,0.0,0.0,0.0,0.0,1.0,1.0,1.0,2.0,-1.0
47.0,0.0,0.0,0.0,0.0,0.0,0.0,0.0,1.0,1.0,1.0,2.0,-1.0
48.0,0.0,0.0,0.0,0.0,0.0,0.0,0.0,1.0,1.0,1.0,2.0,-1.0
49.0,0.0,0.0,0.0,0.0,0.0,0.0,0.0,1.0,1.0,1.0,2.0,-1.0
50.0,0.0,0.0,0.0,0.0,0.0,0.0,0.0,1.0,1.0,1.0,2.0,-1.0
51.0,0.0,0.0,0.0,0.0,0.0,0.0,0.0,1.0,1.0,1.0,2.0,-1.0
52.0,0.0,0.0,0.0,0.0,0.0,0.0,0.0,1.0,1.0,1.0,2.0,-0.24000000000000588
53.0,0.0,0.0,0.0,0.0,0.0,0.0,0.0,1.0,1.0,1.0,2.0,0.0
54.0,0.0,0.0,0.0,0.0,0.0,0.0,0.0,1.0,1.0,1.0,2.0,0.0
55.0,0.0,0.0,0.0,0.0,0.0,0.0,0.0,1.0,1.0,1.0,2.0,0.0
56.0,0.0,0.0,0.0,0.0,0.0,0.0,0.0,1.0,1.0,1.0,2.0,0.0
57.0,0.0,0.0,0.0,0.0,0.0,0.0,0.0,1.0,1.0,1.0,2.0,0.0
58.0,0.0,0.0,0.0,0.0,0.0,0.0,0.0,1.0,1.0,1.0,2.0,0.0
59.0,0.0,0.0,0.0,0.0,0.0,0.0,0.0,1.3349999999999977,1.0,1.0,2.0,0.0
60.0,0.0,0.0,0.0,0.0,0.0,0.0,0.0,1.8999999999999977,1.0,1.0,2.0,0.0
61.0,0.0,0.0,0.0,0.0,0.0,0.0,0.0,2.0,1.0,1.0,2.0,0.0
62.0,0.0,0.0,0.0,0.0,0.0,0.0,0.0,2.0,1.0,1.0,2.0,0.0
63.0,0.0,0.0,0.0,0.0,0.0,0.0,0.0,2.0,1.0,1.0,2.0,0.0
64.0,0.0,0.0,0.0,0.0,0.0,0.0,0.0,2.0,1.0,1.0,2.0,0.0
65.0,0.0,0.0,0.0,0.0,0.0,0.0,0.0,2.0,1.0,1.0,2.0,0.0
66.0,0.0,0.0,0.0,0.0,0.0,0.0,0.0,1.7100000000000024,1.0,1.0,2.0,0.0
67.0,0.0,0.0,0.0,0.0,0.0,0.0,0.0,1.1450000000000005,1.0,1.0,2.0,0.0
68.0,0.0,0.0,0.0,0.0,0.0,0.0,0.0,1.0,1.0,1.0,2.0,0.0
69.0,0.0,0.0,0.0,0.0,0.0,0.0,0.0,1.0,1.0,1.0,2.0,0.0
70.0,0.0,0.0,0.0,0.0,0.0,0.0,0.0,1.0,1.0,1.0,1.9500000000000048,-0.5499999999999952
71.0,0.0,0.0,0.0,0.0,0.0,0.0,0.0,1.0,1.0,1.0,1.3850000000000062,-1.0
72.0,0.0,0.0,0.0,0.0,0.0,0.0,0.0,1.0,1.0,1.0,1.0,-1.0
73.0,0.0,0.0,0.0,0.0,0.0,0.0,0.0,1.0,1.0,1.0,1.0,-1.0
74.0,0.0,0.0,0.0,0.0,0.0,0.0,0.0,1.0,1.0,1.0,1.0,-1.0
75.0,0.0,0.0,0.0,0.0,0.0,0.0,0.0,1.0,1.0,1.0,1.0,-1.0
76.0,0.0,0.0,0.0,0.0,0.0,0.0,0.0,1.0,1.0,1.0,1.0,-1.0
77.0,0.0,0.0,0.0,0.0,0.0,0.0,0.0,1.0,1.0,1.0,1.0,0.0
78.0,0.0,0.0,0.0,0.0,0.0,0.0,0.0,1.0,1.0699999999999996,1.0,1.0,0.0
79.0,0.0,0.0,0.0,0.0,0.0,0.0,0.0,1.0,1.6349999999999982,1.0,1.0,0.0
80.0,0.0,0.0,0.0,0.0,0.0,0.0,0.0,1.3999999999999935,2.0,1.0,1.0,0.0
81.0,0.0,0.0,0.0,0.0,0.0,0.0,0.0,2.0,2.0,1.0,1.0,0.0
82.0,0.0,0.0,0.0,0.0,0.0,0.0,0.0,2.0,2.0,1.0,1.0,0.0
83.0,0.0,0.0,0.0,0.0,0.0,0.0,0.0,2.0,2.0,1.0,1.0,0.0
84.0,0.0,0.0,0.0,0.0,0.0,0.0,0.0,2.0,2.0,1.0,1.0,0.0
85.0,0.0,0.0,0.0,0.0,0.0,0.0,0.0,2.0,2.0,1.0,1.0,0.0
86.0,0.0,0.0,0.0,0.0,0.0,0.0,0.0,2.0,2.0,1.0,1.0,0.0
87.0,0.0,0.0,0.0,0.0,0.0,0.0,0.0,2.0,2.0,1.0,1.0,0.0
88.0,0.0,0.0,0.0,0.0,0.0,0.0,0.0,2.0,2.0,1.0,1.0,0.0
89.0,0.0,0.0,0.0,0.0,0.0,0.0,0.0,2.0,2.0,1.0,1.0,0.0
90.0,0.0,0.0,0.0,0.0,0.0,0.0,0.0,2.0,2.0,1.0,1.0,0.0
91.0,0.0,0.0,0.0,0.0,0.0,0.0,0.0,2.0,2.0,1.0,1.0,0.0
92.0,0.0,0.0,0.0,0.0,0.0,0.0,0.0,2.0,2.0,1.0,1.0,0.0
93.0,0.0,0.0,0.0,0.0,0.0,0.0,0.0,2.0,2.0,1.0,1.0,0.0
94.0,0.0,0.0,0.0,0.0,0.0,0.0,0.0,2.0,2.0,1.0,1.0,0.0
95.0,0.0,0.0,0.0,0.0,0.0,0.0,0.0,2.0,2.0,1.0,1.0,0.0
96.0,0.0,0.0,0.0,0.0,0.0,0.0,0.0,2.0,2.0,1.0,1.0,0.0
97.0,0.0,0.0,0.0,0.0,0.0,0.0,0.0,2.0,2.0,1.0,1.0,0.0
98.0,0.0,0.0,0.0,0.0,0.0,0.0,0.0,2.0,2.0,1.0,1.0,0.0
99.0,0.0,0.0,0.0,0.0,0.0,0.0,0.0,2.0,2.0,1.0,1.0,0.0
100.0,0.0,0.0,0.0,0.0,0.0,0.0,0.0,2.0,2.0,1.0,1.0,0.0
101.0,0.0,0.0,0.0,0.0,0.0,0.0,0.0,2.0,2.0,1.0,1.0,0.0
102.0,0.0,0.0,0.0,0.0,0.0,0.0,0.0,2.0,2.0,1.0,1.0,0.0
103.0,0.0,0.0,0.0,0.0,0.0,0.0,0.0,2.0,2.0,1.0,1.0,0.0
104.0,0.0,0.0,0.0,0.0,0.0,0.0,0.0,2.0,2.0,1.0,1.0,0.0
105.0,0.0,0.0,0.0,0.0,0.0,0.0,0.0,2.0,2.0,1.0,1.0,0.0
106.0,0.0,0.0,0.0,0.0,0.0,0.0,0.0,2.0,2.0,1.0,1.0,0.0
107.0,0.0,0.0,0.0,0.0,0.0,0.0,0.0,2.0,2.0,1.0,1.0,0.0
108.0,0.0,0.0,0.0,0.0,0.0,0.0,0.0,2.0,2.0,1.0,1.0,0.0
109.0,0.0,0.0,0.0,0.0,0.0,0.0,0.0,2.0,2.0,1.0,1.0,0.0
110.0,0.0,0.0,0.0,0.0,0.0,0.0,0.0,2.0,2.0,1.0,1.0,0.0
111.0,0.0,0.0,0.0,0.0,0.0,0.0,0.0,2.0,2.0,1.0,1.0,0.0
112.0,0.0,0.0,0.0,0.0,0.0,0.0,0.0,2.0,2.0,1.0,1.0,0.0
113.0,0.0,0.0,0.0,0.0,0.0,0.0,0.0,2.0,2.0,1.0,1.0,0.0
114.0,0.0,0.0,0.0,0.0,0.0,0.0,0.0,2.0,2.0,1.0,1.0,0.0
115.0,0.0,0.0,0.0,0.0,0.0,0.0,0.0,2.0,2.0,1.0,1.0,0.0
116.0,0.0,0.0,0.0,0.0,0.0,0.0,0.0,2.0,2.0,1.0,1.0,0.0
117.0,0.0,0.0,0.0,0.0,0.0,0.0,0.0,2.0,2.0,1.0,1.0,0.0
118.0,0.0,0.0,0.0,0.0,0.0,0.0,0.0,2.0,2.0,1.0,1.0,0.0
119.0,0.0,0.0,0.0,0.0,0.0,0.0,0.0,2.0,2.0,1.0,1.0,0.0
120.0,0.0,0.0,0.0,0.0,0.0,0.0,0.0,2.0,2.0,1.0,1.0,0.0
121.0,0.0,0.0,0.0,0.0,0.0,0.0,0.0,2.0,2.0,1.0,1.0,0.0
122.0,0.0,0.0,0.0,0.0,0.0,0.0,0.0,2.0,2.0,1.0,1.0,0.0
123.0,0.0,0.0,0.0,0.0,0.0,0.0,0.0,2.0,2.0,1.0,1.0,0.0
124.0,0.0,0.0,0.0,0.0,0.0,0.0,0.0,2.0,2.0,1.0,1.0,0.0
125.0,0.0,0.0,0.0,0.0,0.0,0.0,0.0,2.0,2.0,1.0,1.0,0.0
126.0,0.0,0.0,0.0,0.0,0.0,0.0,0.0,2.0,2.0,1.0,1.0,0.0
127.0,0.0,0.0,0.0,0.0,0.0,0.0,0.0,2.0,2.0,1.0,1.0,0.0
128.0,0.3199999999999916,0.0,0.0,0.0,0.0,0.0,0.0,2.0,2.0,1.0,1.0,0.0
129.0,0.8849999999999902,0.0,0.0,0.0,0.0,0.0,0.0,2.0,2.0,1.0,1.0,0.0
130.0,1.0,0.0,0.0,0.0,0.0,0.0,0.0,2.0,2.0,1.0,1.0,0.0
131.0,1.0,0.0,0.0,0.0,0.0,0.0,0.0,2.0,2.0,1.0,1.0,0.0
132.0,0.9200000000000116,0.0,0.0,0.0,0.0,0.0,0.0,2.0,2.0,1.0,1.0,-0.07999999999998844
133.0,0.35499999999999954,0.0,0.0,0.0,0.0,0.0,0.0,2.0,2.0,1.0,1.0,-0.6450000000000005
134.0,0.0,0.0,0.0,0.0,0.0,0.0,0.0,2.0,2.0,1.0,1.0,-1.0
135.0,0.0,0.0,0.0,0.0,0.0,0.0,0.0,1.4500000000000048,2.0,1.0,1.0,-1.0
136.0,0.0,0.0,0.0,0.0,0.0,0.0,0.0,1.0,2.0,1.0,1.0,-1.0
137.0,0.0,0.0,0.0,0.0,0.0,0.0,0.0,1.4049999999999947,2.0,1.0,1.0,-1.0
138.0,0.0,0.0,0.0,0.0,0.0,0.0,0.0,1.969999999999993,2.0,1.0,1.0,-1.0
139.0,0.0,0.0,0.0,0.0,0.0,0.0,0.0,2.0,2.0,1.0,1.0,-1.0
140.0,0.0,0.0,0.0,0.0,0.0,0.0,0.0,2.0,2.0,1.0,1.0,-1.0
141.0,0.0,0.0,0.0,0.0,0.0,0.0,0.0,2.0,2.0,1.0,1.0,-1.0
142.0,0.0,0.0,0.0,0.0,0.0,0.0,0.0,2.0,2.0,1.0,1.0,-1.0
143.0,0.0,0.0,0.0,0.0,0.0,0.0,0.0,2.0,2.0,1.0,1.0,-1.0
144.0,0.0,0.0,0.0,0.0,0.0,0.0,0.0,2.0,2.0,0.6400000000000039,1.0,-1.0
145.0,0.0,0.0,0.0,0.0,0.0,0.0,0.0,2.0,2.0,0.07500000000000084,1.0,-1.0
146.0,0.0,0.0,0.0,0.0,0.0,0.0,0.0,2.0,2.0,0.0,1.0,-1.0
147.0,0.0,0.0,0.0,0.0,0.0,0.0,0.0,2.0,2.0,0.0,0.9450000000000037,-1.0
148.0,0.0,0.0,0.0,0.0,0.0,0.0,0.0,1.8800000000000052,2.0,0.0,0.38000000000000517,-1.0
149.0,0.0,0.0,0.0,0.0,0.0,0.0,0.0,1.3150000000000066,2.0,0.0,0.0,-1.0
150.0,0.0,0.0,0.0,0.0,0.0,0.0,0.0,1.499999999999984,2.0,0.0,0.0,-1.0
151.0,0.0,0.0,0.0,0.0,0.0,0.0,0.0,2.0,2.0,0.0,0.0,-0.370000000000019
152.0,0.0,0.0,0.0,0.0,0.0,0.0,0.0,2.0,2.0,0.0,0.0,0.0
153.0,0.0,0.0,0.0,0.0,0.0,0.0,0.0,2.0,2.0,0.0,0.0,0.0
154.0,0.0,0.0,0.0,0.0,0.0,0.0,0.0,2.0,2.0,0.0,0.5099999999999862,0.0
155.0,0.0,0.0,0.0,0.0,0.0,0.0,0.0,2.0,2.0,0.0,1.0,0.0
156.0,0.0,0.0,0.0,0.0,0.0,0.0,0.0,2.0,2.0,0.0,1.0,0.0
157.0,0.0,0.0,0.0,0.0,0.0,0.0,0.0,2.0,2.0,0.0,1.0,0.0
158.0,0.0,0.0,0.0,0.0,0.0,0.0,0.0,2.0,2.0,0.0,1.0,0.0
159.0,0.0,0.0,0.0,0.0,0.0,0.0,0.0,2.0,2.0,0.0,1.0,0.0
160.0,0.0,0.0,0.0,0.0,0.0,0.0,0.0,2.0,2.0,0.0,1.0,0.0
161.0,0.0,0.0,0.0,0.0,0.0,0.0,0.0,2.0,2.0,0.0,1.0,0.0
162.0,0.0,0.0,0.0,0.0,0.0,0.0,0.0,2.0,2.0,0.0,1.0,0.0
163.0,0.0,0.0,0.0,0.0,0.0,0.0,0.0,2.0,2.0,0.0,1.0,0.0
164.0,0.0,0.0,0.0,0.0,0.0,0.0,0.0,2.0,2.0,0.0,1.0,0.0
165.0,0.0,0.0,0.0,0.0,0.0,0.0,0.0,2.0,2.0,0.0,1.0,0.0
166.0,0.0,0.0,0.0,0.0,0.0,0.0,0.0,2.0,2.0,0.0,1.0,0.0
167.0,0.0,0.0,0.0,0.0,0.0,0.0,0.0,2.0,2.0,0.0,1.0,0.0
168.0,0.0,0.0,0.0,0.0,0.0,0.0,0.0,1.160000000000009,2.0,0.0,1.0,0.0
169.0,0.0,0.0,0.0,0.0,0.0,0.0,0.0,1.0,2.0,0.0,0.5150000000000035,0.0
170.0,0.0,0.0,0.0,0.0,0.0,0.0,0.0,1.0,2.0,0.0,0.0,0.0
171.0,0.0,0.0,0.0,0.0,0.0,0.0,0.0,1.0,2.0,0.0,0.0,0.0
172.0,0.0,0.0,0.0,0.0,0.0,0.0,0.0,1.0,2.0,0.0,0.0,0.0
173.0,0.0,0.0,0.0,0.0,0.0,0.0,0.0,1.0,2.0,0.0,0.0,0.0
174.0,0.0,0.0,0.0,0.0,0.0,0.0,0.0,1.0,2.0,0.0,0.0,0.0
175.0,0.0,0.0,0.0,0.0,0.0,0.0,0.0,1.0,2.0,0.0,0.0,0.0
176.0,0.0,0.0,0.0,0.0,0.0,0.0,0.0,1.0,2.0,0.0,0.0,0.0
177.0,0.0,0.0,0.0,0.0,0.0,0.0,0.0,1.0,2.0,0.0,0.0,0.0
178.0,0.0,0.0,0.0,0.0,0.0,0.0,0.0,1.0,2.0,0.0,0.0,0.0
179.0,0.0,0.0,0.0,0.0,0.0,0.0,0.0,1.269999999999973,2.0,0.0,0.0,0.0
180.0,0.0,0.0,0.0,0.0,0.0,0.0,0.0,2.0,2.0,0.0,0.0,0.0
181.0,0.0,0.0,0.0,0.0,0.0,0.0,0.0,2.0,2.0,0.0,0.0,0.0
182.0,0.0,0.0,0.0,0.0,0.0,0.0,0.0,2.0,2.0,0.0,0.0,0.0
183.0,0.0,0.0,0.0,0.0,0.0,0.0,0.0,2.0,2.0,0.0,0.0,0.0
184.0,0.0,0.0,0.0,0.0,0.0,0.0,0.0,2.0,2.0,0.0,0.0,0.0
185.0,0.0,0.0,0.0,0.0,0.0,0.0,0.0,1.9500000000000208,2.0,0.0,0.0,0.0
186.0,0.0,0.0,0.0,0.0,0.0,0.0,0.0,1.0,2.0,0.0,0.0,0.0
187.0,0.0,0.0,0.0,0.0,0.0,0.0,0.0,1.0,2.0,0.0,0.0,0.0
188.0,0.0,0.0,0.0,0.0,0.0,0.0,0.0,1.0,2.0,0.0,0.0,0.0
189.0,0.0,0.0,0.0,0.0,0.0,0.0,0.0,1.0,2.0,0.0,0.0,0.0
190.0,0.0,0.0,0.0,0.0,0.0,0.0,0.0,1.0,2.0,0.0,0.0,0.0
191.0,0.0,0.0,0.0,0.0,0.0,0.0,0.0,1.0,2.0,0.0,0.0,0.0
192.0,0.0,0.0,0.0,0.0,0.0,0.0,0.0,1.0,2.0,0.0,0.0,0.0
193.0,0.0,0.0,0.0,0.0,0.0,0.0,0.0,1.0,2.0,0.0,0.0,0.0
194.0,0.0,0.0,0.0,0.0,0.0,0.0,0.0,1.0,2.0,0.0,0.0,0.0
195.0,0.0,0.0,0.0,0.0,0.0,0.0,0.0,1.0,2.0,0.0,0.0,-0.17499999999999116
196.0,0.0,0.0,0.0,0.0,0.0,0.0,0.0,1.0,2.0,0.0,0.0,-0.7399999999999897
197.0,0.0,0.0,0.0,0.0,0.0,0.0,0.0,1.0,2.0,0.0,0.0,-1.0
198.0,0.0,0.0,0.0,0.0,0.0,0.0,0.0,1.0,2.0,0.0,0.0,-1.0
199.0,0.0,0.0,0.0,0.0,0.0,0.0,0.0,1.0,2.0,0.0,0.0,-0.13000000000002931
200.0,0.0,0.0,0.0,0.0,0.0,0.0,0.0,1.0,2.0,0.0,0.0,0.0
201.0,0.0,0.0,0.0,0.0,0.0,0.0,0.0,1.0,2.0,0.0,0.0,0.0
202.0,0.0,0.0,0.0,0.0,0.0,0.0,0.0,1.0,2.0,0.0,0.0,0.0
203.0,0.0,0.0,0.0,0.0,0.0,0.0,0.0,1.0,2.0,0.0,0.0,0.0
204.0,0.0,0.0,0.0,0.0,0.0,0.0,0.0,1.0,2.0,-0.5199999999999884,0.0,0.0
205.0,0.0,0.0,0.0,0.0,0.0,0.0,0.0,1.0,2.0,-1.0,0.0,0.0
206.0,0.0,0.0,0.0,0.0,0.0,0.0,0.0,1.0,2.0,-1.0,0.0,0.0
207.0,0.0,0.0,0.0,0.0,0.0,0.0,0.0,1.0,2.0,-1.0,0.0,0.0
208.0,0.0,0.0,0.0,0.0,0.0,0.0,0.0,1.0,2.0,-1.0,0.0,0.0
209.0,0.0,0.0,0.0,0.0,0.0,0.0,0.0,1.0,2.0,-1.0,0.0,0.0
210.0,0.0,0.0,0.0,0.0,0.0,0.0,0.0,1.0,2.0,-1.0,0.0,0.0
211.0,0.0,0.0,0.0,0.0,0.0,0.0,0.0,1.0,2.0,-1.0,0.0,0.0
212.0,0.0,0.0,0.0,0.0,0.0,0.0,0.0,1.0,2.0,-1.0,0.0,0.0
213.0,0.0,0.0,0.0,0.0,0.0,0.0,0.0,1.0,2.0,-1.0,0.0,0.0
214.0,0.0,0.0,0.0,0.0,0.0,0.0,0.0,1.0,2.0,-1.0,0.0,0.0
215.0,0.0,0.0,0.0,0.0,0.0,0.0,0.0,1.0,2.0,-1.0,0.0,0.0
216.0,0.0,0.0,0.0,0.0,0.0,0.0,0.0,1.0,2.0,-1.0,0.0,0.0
217.0,0.0,0.0,0.0,0.0,0.0,0.0,0.0,1.0,2.0,-1.0,0.0,0.0
218.0,0.0,0.0,0.0,0.0,0.0,0.0,0.0,1.0,2.0,-1.0,0.0,0.0
219.0,0.0,0.0,0.0,0.0,0.0,0.0,0.0,1.0,2.0,-1.0,0.0,0.0
220.0,0.0,0.0,0.0,0.0,0.0,0.0,0.0,1.0,2.0,-1.0,0.0,0.0
221.0,0.0,0.0,0.0,0.0,0.0,0.0,0.0,1.0,2.0,-1.0,0.0,0.0
222.0,0.0,0.0,0.0,0.0,0.0,0.0,0.0,1.0,2.0,-1.0,0.0,0.0
223.0,0.0,0.0,0.0,0.0,0.0,0.0,0.0,1.0,2.0,-1.0,0.0,0.0
224.0,0.0,0.0,0.0,0.0,0.0,0.0,0.0,1.0,2.0,-1.0,0.0,0.0
225.0,0.0,0.0,0.0,0.0,0.0,0.0,0.0,1.0,2.0,-1.0,0.0,0.0
226.0,0.0,0.0,0.0,0.0,0.0,0.0,0.0,1.0,2.0,-1.0,0.0,0.0
227.0,0.0,0.0,0.0,0.0,0.0,0.0,0.0,1.0,2.0,-1.0,0.0,0.0
228.0,0.0,0.0,0.0,0.0,0.0,0.0,0.0,1.0,2.0,-1.0,0.0,0.0
229.0,0.0,0.0,0.0,0.0,0.0,0.0,0.0,1.0,2.0,-1.0,0.0,0.0
230.0,0.44999999999998874,0.0,0.0,0.0,0.0,0.0,0.0,1.0,2.0,-1.0,0.0,0.0
231.0,1.0,0.0,0.0,0.0,0.0,0.0,0.0,1.0,2.0,-1.0,0.0,0.0
232.0,1.0,0.0,0.0,0.0,0.0,0.0,0.0,1.0,2.0,-1.0,0.0,0.0
233.0,1.0,0.0,0.0,0.0,0.0,0.0,0.0,1.0,2.0,-1.0,0.0,0.0
234.0,1.0,0.0,0.0,0.0,0.0,0.0,0.0,1.0,2.0,-1.0,0.0,0.0
235.0,0.45000000000003704,0.0,0.0,0.0,0.0,0.0,0.0,1.0,2.0,-1.0,0.0,0.0
236.0,0.0,0.0,0.0,0.0,0.0,0.0,0.0,1.0,2.0,-1.0,0.0,0.0
237.0,0.0,0.0,0.0,0.0,0.0,0.0,0.0,1.0,2.0,-1.0,0.0,0.0
238.0,0.0,0.0,0.0,0.0,0.0,0.0,0.0,1.0,2.0,-1.0,0.0,0.0
239.0,0.0,0.0,0.0,0.0,0.0,0.0,0.0,1.0,1.0,-1.0,0.0,0.0
240.0,0.0,0.0,0.0,0.0,0.0,0.0,0.0,1.0,1.0,-1.0,0.0,-0.09999999999999036
241.0,0.0,0.0,0.0,0.0,0.0,0.0,0.0,1.0,1.0,-1.0,0.0,-0.6649999999999889
242.0,0.0,0.0,0.0,0.0,0.0,0.0,0.0,1.0,1.2299999999999875,-1.2299999999999875,0.0,-1.0
243.0,0.0,0.3933333333333175,0.0,0.0,0.0,0.0,0.0,1.0,2.148999999999966,-1.4016666666666686,0.0,-0.6066666666666825
244.0,0.0,1.9866666666666115,0.0,0.0,0.0,0.0,0.0,1.9599999999999556,5.571636363636239,-0.37333333333337304,0.7199999999999691,0.9866666666666115
245.0,-0.8499999999999662,3.7749999999999493,0.8499999999999662,0.0,0.0,0.8499999999999662,0.0,3.32499999999996,10.146590909090774,0.0,1.4249999999999832,2.7749999999999493
246.0,-1.0,4.0,1.0,0.0,0.0,1.0,0.0,3.5,9.198333333333396,0.4899999999999817,1.9899999999999816,3.0
247.0,-0.44500000000001977,2.593333333333364,1.0,0.0,0.0,1.0,0.0,2.44500000000002,5.170000000000119,0.0,1.4450000000000198,1.3350000000000593
248.0,0.0,1.7600000000000346,1.0,0.0,0.0,1.0,0.0,1.8800000000000174,2.0200000000000693,0.0,1.0,0.0
249.0,0.0,0.6300000000000132,0.6300000000000132,0.0,0.0,0.8150000000000066,0.0,1.3150000000000066,-0.05499999999998029,-0.3699999999999868,1.0,-0.1849999999999934
250.0,0.0,0.0,0.0,0.0,0.0,0.25000000000000805,0.0,0.5000000000000161,-1.0,-1.0,0.5000000000000161,-0.749999999999992
251.0,0.0,0.0,0.0,0.0,0.0,0.0,0.0,0.0,-1.629999999999981,-1.0,0.0,-1.0
252.0,0.0,0.0,0.0,0.0,0.0,0.0,0.0,0.0,-2.0,-1.379999999999989,0.0,-1.759999999999978
253.0,0.0,-0.8899999999999751,0.0,0.0,0.0,0.0,0.0,0.0,-1.1100000000000247,-1.9449999999999876,0.0,-2.0
254.0,0.0,-1.0,0.0,0.0,0.0,0.0,0.0,0.0,-1.0,-2.0,-0.019999999999972377,-2.0
255.0,0.0,-0.8500000000000305,0.0,0.0,0.0,0.0,0.0,0.0,-1.0,-2.0,-1.0,-2.0
256.0,0.0,0.0,0.0,0.0,0.0,0.0,0.0,0.0,-1.0,-2.0,-1.0,-2.0
257.0,0.0,0.0,0.0,0.0,0.0,0.0,0.0,0.0,-1.0,-2.0,-1.0,-2.0
258.0,0.2699999999999878,0.0,0.0,0.0,0.0,0.0,0.0,0.0,-0.7300000000000122,-2.0,-1.0,-2.0
259.0,0.8349999999999898,0.0,0.0,0.0,0.0,0.0,0.0,0.0,-0.16500000000001025,-2.0,-1.0,-1.3300000000000205
260.0,1.0,0.0,0.0,0.0,0.0,0.0,0.0,0.0,0.0,-2.0,-1.0,-1.0
261.0,1.0,0.0,0.0,0.0,0.0,0.0,0.0,0.0,0.0,-2.464999999999991,-1.0,-1.0
262.0,1.0,0.0,0.0,0.0,0.0,0.0,0.0,0.0,0.5299999999999756,-3.0,-1.0,-1.0
263.0,1.0,0.0,0.0,0.0,0.0,0.0,0.0,0.0,1.0,-3.0,-1.0,-1.0
264.0,1.0,0.0,0.0,0.0,0.0,0.0,0.0,0.0,1.0,-3.0,-1.0,-1.0
265.0,1.0,0.0,0.0,0.0,0.0,0.0,0.0,0.0,1.0,-3.0,-1.0,-1.0
266.0,1.0,0.0,0.0,0.0,0.0,0.0,0.0,0.0,1.0,-3.0,-1.0,-1.0
267.0,1.0,0.0,0.0,0.0,0.0,0.0,0.0,0.0,1.0,-3.0,-1.0,-1.0
268.0,1.0,0.0,0.0,0.0,0.0,0.0,0.0,0.0,1.0,-3.0,-1.0,-1.0
269.0,1.0,0.0,0.0,0.0,0.0,0.0,0.0,0.0,1.0,-3.0,-1.0,-1.0
270.0,1.0,0.0,0.0,0.0,0.0,0.0,0.0,0.0,1.0,-3.0,-1.0,-1.0
271.0,1.0,0.0,0.0,0.0,0.0,0.0,0.0,0.0,0.7700000000000199,-3.0,-1.0,-1.0
272.0,1.0,0.0,0.0,0.0,0.0,0.0,0.0,0.0,0.0,-3.0,-1.0,-1.0
273.0,1.0,0.0,0.0,0.0,0.0,0.0,0.0,0.0,0.0,-3.0,-1.0,-0.510000000000034
274.0,0.3800000000000334,0.0,0.0,0.0,0.0,0.0,0.0,0.0,-0.3099999999999833,-3.0,-1.0,0.0
275.0,0.0,0.0,0.0,0.0,0.0,0.0,0.0,-0.7499999999999518,-0.8749999999999759,-3.0,-1.0,0.0
276.0,0.0,0.0,0.0,0.0,0.0,0.0,0.0,-1.0,-1.0,-3.0,-1.0,0.0
277.0,0.005000000000000964,0.0,0.0,0.0,0.0,0.0,0.0,-1.0,-1.0,-3.0,-1.0,0.0
278.0,0.5699999999999859,0.0,0.0,0.0,0.0,0.0,0.0,-1.0,-1.0,-3.0,-0.8600000000000283,0.0
279.0,1.0,0.0,0.0,0.0,0.0,0.0,0.0,-1.0,-1.0,-3.0,0.0,0.1349999999999939
280.0,1.0,0.0,0.0,0.0,0.0,0.0,0.0,-1.0,-1.199999999999987,-3.0,0.0,0.6999999999999872
281.0,1.0,0.5299999999999737,0.0,0.0,0.0,0.0,0.0,-1.0,-1.7649999999999868,-3.0,0.0,1.0
282.0,1.0,1.0,0.0,-0.32999999999998847,0.0,0.0,-0.32999999999998847,-1.0,-2.3299999999999885,-3.0,0.0,1.3299999999999885
283.0,1.0,1.0,0.0,-0.8949999999999798,0.0,0.0,-0.8949999999999798,-1.0,-2.8949999999999796,-3.0,0.0,1.8949999999999798
284.0,1.9199999999999795,1.0,0.0,-1.0,0.0,0.0,-1.0,-1.9199999999999795,-3.0,-3.0,0.0,2.0
285.0,2.0,1.0,0.0,-1.0,0.024999999999974307,0.0,-1.0,-2.0,-4.0,-3.024999999999974,0.0,2.0
286.0,2.0,1.0,0.0,-1.0,0.5899999999999852,0.0,-1.0,-2.0,-4.0,-3.589999999999985,0.0,2.0
287.0,2.0,1.0,0.0,-1.0,1.0,0.0,-1.0,-2.309999999999951,-4.154999999999975,-4.0,0.0,2.309999999999951
288.0,2.0,1.0,0.0,-1.0,1.0,0.0,-1.4399999999999846,-3.0,-4.719999999999993,-4.0,0.0,3.0
289.0,2.0,1.0,0.0,-1.0,1.0,0.0,-2.0,-3.0,-5.0,-4.0,0.0,3.0
290.0,1.3000000000000127,1.0,0.0,-1.0,1.0,0.0,-2.0,-3.0,-5.0,-4.0,0.0,3.0
291.0,1.0,1.0,0.0,-1.0,1.0,0.0,-2.0,-3.829999999999967,-5.0,-4.0,0.0,3.0
292.0,1.0,1.0,0.0,-1.0,0.5200000000000051,0.0,-2.0,-4.0,-5.0,-4.0,0.0,2.0400000000000102
293.0,1.0,1.0,0.0,-1.0,0.0,0.0,-2.0,-4.0,-5.0,-4.089999999999959,0.0,2.0
294.0,1.0,1.0,0.0,-1.0,0.0,0.0,-2.0,-3.780000000000022,-5.0,-5.0,0.0,2.0
295.0,1.0,1.0,0.0,-1.0,0.0,0.0,-2.0,-3.0,-5.0,-5.0,-0.34999999999996145,2.0
296.0,1.0,1.0,0.0,-1.0,0.0,0.0,-1.760000000000018,-3.0,-4.7600000000000176,-5.479999999999964,-1.0,1.760000000000018
297.0,1.0,1.0,0.0,-1.0,0.0,0.0,-1.195000000000018,-3.0,-4.195000000000018,-6.304999999999982,-1.0,1.195000000000018
298.0,1.0,1.0,0.0,-1.0,0.0,0.0,-1.0,-3.0,-4.0,-6.869999999999975,-1.0,1.0
299.0,1.0,1.0,0.0,-1.0,0.0,0.0,-1.0,-2.1300000000000336,-4.0,-7.0,-1.4349999999999832,0.5650000000000167
300.0,1.0,1.0,0.0,-1.0,0.0,0.0,-1.0,-2.0,-4.0,-8.0,-2.0,0.0
301.0,0.0,1.0,0.0,-1.0,0.0,0.0,-0.43500000000001543,-1.0,-3.4350000000000156,-8.564999999999985,-2.5649999999999844,0.0
302.0,0.0,1.0,0.0,-1.0,0.0,0.0,0.0,-1.0,-3.0,-9.259999999999986,-3.259999999999986,-0.25999999999998585
303.0,0.0,0.6100000000000283,0.0,-1.0,0.0,0.0,0.0,-0.8050000000000141,-2.805000000000014,-10.0,-4.0,-1.0
304.0,0.0,0.0,0.0,-1.0,0.0,0.0,0.0,-0.24000000000001415,-2.240000000000014,-10.259999999999986,-4.519999999999972,-1.2599999999999858
305.0,0.0,0.0,0.0,-0.6750000000000129,0.0,0.0,0.0,0.6499999999999743,-1.3500000000000258,-10.824999999999987,-5.649999999999975,-1.824999999999987
306.0,0.0,0.0,0.0,-0.11000000000002119,0.0,0.0,0.7799999999999576,1.7799999999999576,-1.0,-11.779999999999959,-6.0,-2.7799999999999576
307.0,0.0,0.0,0.0,0.0,0.0,0.0,1.0,2.4549999999999885,-1.0,-12.0,-6.909999999999977,-3.0
308.0,0.0,-1.019999999999973,0.0,0.0,0.0,0.0,1.519999999999973,3.7199999999999327,-0.48000000000002696,-12.519999999999973,-7.539999999999946,-4.039999999999946
309.0,0.0,-1.5849999999999842,0.0,0.0,0.0,0.0,2.0,5.169999999999969,0.16999999999996854,-13.0,-8.584999999999985,-5.0
310.0,0.0,-2.149999999999974,0.0,0.0,0.0,0.0,2.2999999999999488,6.199999999999967,1.1499999999999744,-13.29999999999995,-9.149999999999974,-5.299999999999948
311.0,0.0,-2.929999999999982,-0.429999999999982,0.0,0.0,-0.214999999999991,3.214999999999991,7.383333333333304,2.001666666666648,-14.0,-9.714999999999991,-6.429999999999982
312.0,-0.2799999999999897,-3.7799999999999896,-1.0,0.0,0.0,-0.7799999999999897,3.7799999999999896,8.98666666666664,3.599999999999965,-14.0,-10.55999999999998,-7.27999999999999
313.0,-0.8449999999999923,-4.689999999999984,-1.0,0.0,0.0,-1.0,4.689999999999984,10.304999999999986,5.253333333333314,-14.0,-11.0,-8.189999999999985
314.0,-1.0,-5.0,-1.0,0.0,0.0,-1.0,5.0,11.759999999999955,7.033333333333273,-13.180000000000035,-11.0,-8.909999999999982
315.0,-1.0,-5.949999999999987,-1.9499999999999873,0.9499999999999872,0.9499999999999872,-1.9499999999999873,5.474999999999993,12.63333333333333,8.916666666666645,-13.0,-11.0,-9.474999999999994
316.0,-1.0,-6.039999999999978,-2.0,1.0,1.0,-2.0,6.0799999999999566,14.42666666666661,11.383999999999903,-11.57333333333339,-11.0,-10.079999999999956
317.0,-1.0,-6.604999999999988,-2.0,1.0,1.0,-2.0,7.0,15.709999999999976,13.982999999999945,-10.290000000000024,-11.0,-11.0
318.0,-1.0,-7.0,-2.0,1.1699999999999795,1.0,-2.339999999999959,7.339999999999959,16.89666666666662,16.6159999999999,-9.10333333333338,-10.830000000000021,-11.169999999999979
319.0,-1.0,-7.0,-2.469999999999962,1.734999999999981,1.0,-3.0,8.0,18.528333333333265,19.750999999999877,-7.471666666666733,-10.265000000000018,-11.734999999999982
320.0,-1.0,-7.0,-3.0,2.0,1.0,-3.0,8.599999999999962,20.699999999999925,23.899999999999846,-5.300000000000077,-9.400000000000038,-12.599999999999962
321.0,-1.0,-7.0,-3.0,2.0,1.0,-3.364999999999974,9.0,22.959999999999894,28.05499999999982,-3.040000000000104,-8.635000000000026,-13.364999999999974
322.0,-1.0,-7.0,-3.0,2.0,1.0,-3.929999999999982,9.859999999999964,25.076666666666597,31.825714285714174,-0.5220000000000853,-8.070000000000018,-13.929999999999982
323.0,-1.0,-7.989999999999934,-3.0,2.0,1.0,-4.0,10.0,27.181333333333214,35.17085714285695,2.175999999999844,-7.010000000000066,-14.989999999999934
324.0,-1.0,-8.0,-3.559999999999983,3.0,1.0,-4.0,10.559999999999983,29.739999999999934,38.895999999999894,5.3599999999999,-5.880000000000034,-15.619999999999967
325.0,-1.0,-8.0,-4.0,3.0,1.0,-4.249999999999984,11.0,31.958333333333304,42.39999999999997,8.699999999999955,-4.750000000000016,-16.624999999999993
326.0,-1.0,-8.0,-4.0,3.0,1.0,-5.0,11.189999999999985,33.83999999999996,45.07399999999992,11.711999999999925,-4.0,-17.37999999999997
327.0,-1.0,-8.254999999999985,-4.0,3.0,1.0,-5.0,11.754999999999985,35.60166666666662,47.51999999999994,14.627999999999917,-3.4900000000000304,-18.50999999999997
328.0,-1.0,-8.819999999999986,-4.639999999999972,3.0,1.3199999999999859,-5.0,12.0,37.779999999999944,49.779999999999944,17.919999999999916,-2.3600000000000283,-19.639999999999972
329.0,-1.0,-9.0,-5.0,3.0,1.8849999999999778,-5.0,12.0,39.91166666666659,51.65499999999993,21.155999999999874,-1.2300000000000444,-20.769999999999957
330.0,-1.0,-9.0,-5.0,3.0,2.0,-5.449999999999987,12.899999999999974,41.383333333333304,53.199999999999974,23.95999999999994,-1.0,-21.44999999999999
331.0,-1.0,-9.014999999999972,-5.014999999999972,3.5149999999999717,2.0,-6.0,13.014999999999972,42.71666666666656,54.529999999999944,27.08999999999983,-0.47000000000005654,-22.529999999999944
332.0,-1.0,-9.579999999999984,-5.579999999999983,4.0,2.0,-6.0,13.579999999999984,44.51999999999997,55.65999999999997,30.447999999999904,0.6599999999999666,-23.659999999999968
333.0,-1.0,-10.0,-6.0,4.0,2.0,-6.289999999999946,14.0,45.644999999999975,56.644999999999975,33.43799999999988,1.644999999999973,-24.644999999999975
334.0,-1.0,-10.0,-6.0,4.0,2.0,-7.0,14.209999999999976,46.41999999999995,57.41999999999995,35.92399999999989,2.2099999999999764,-25.419999999999952
335.0,-1.0,-10.0,-6.0,4.0,2.0,-7.0,14.774999999999974,47.54999999999995,58.0,38.62999999999987,3.0499999999999488,-26.549999999999947
336.0,-1.0,-10.679999999999982,-6.679999999999982,4.0,2.0,-7.0,15.0,48.0,58.679999999999986,41.295999999999964,4.179999999999982,-27.339999999999993
337.0,-1.0,-11.0,-7.0,4.0,2.809999999999963,-7.0,15.0,48.80999999999997,59.0,43.619999999999926,4.904999999999982,-27.904999999999983
338.0,-1.0,-11.0,-7.0,4.0,3.0,-7.469999999999993,15.939999999999985,49.0,58.53000000000001,45.566666666666634,5.469999999999993,-28.46999999999999
339.0,-1.0,-11.0,-7.0,4.534999999999977,3.0,-8.0,16.0,49.0,58.0,47.63999999999991,6.569999999999954,-29.0
340.0,-1.0,-11.0,-7.0,5.0,3.0,-8.0,16.0,49.0,57.90000000000001,49.866666666666625,7.599999999999987,-29.199999999999974
341.0,-1.0,-11.0,-7.0,5.0,3.0,-8.0,16.0,48.670000000000044,57.33500000000002,51.71833333333329,8.329999999999956,-30.0
342.0,-1.0,-11.0,-7.0,5.0,3.0,-8.0,16.45999999999996,48.0,56.77000000000002,53.03666666666662,9.22999999999998,-30.0
343.0,-1.0,-11.0,-7.0,5.0,3.0,-8.0,17.0,48.0,56.20500000000002,54.649999999999935,10.089999999999959,-30.0
344.0,-1.0,-11.0,-7.719999999999946,5.0,3.0,-8.0,17.0,47.28000000000005,55.28000000000005,56.29333333333326,11.219999999999946,-30.0
345.0,-1.0,-11.0,-8.0,5.0,3.0,-8.0,17.0,47.0,54.15000000000004,57.79999999999995,11.924999999999981,-30.0
346.0,-1.0,-11.0,-8.0,5.0,3.0,-8.0,17.0,46.02000000000007,53.51000000000003,58.48999999999997,12.979999999999931,-29.020000000000067
347.0,-1.0,-10.890000000000036,-8.0,5.0,3.0,-8.109999999999964,16.945000000000018,45.445000000000014,52.445000000000014,59.813333333333276,14.109999999999964,-29.0
348.0,-1.0,-10.0,-8.0,5.0,3.0,-9.0,16.38000000000001,44.76000000000002,51.76000000000002,61.23999999999998,15.239999999999982,-29.0
349.0,-1.0,-10.0,-8.0,5.0,3.0,-9.0,16.0,44.0,51.0,62.18499999999998,16.184999999999985,-28.630000000000035
350.0,-1.0,-10.0,-8.0,5.0,3.0,-9.0,16.0,43.500000000000036,50.500000000000036,62.749999999999986,16.999999999999968,-28.0
351.0,-1.0,-10.0,-8.0,5.0,3.0,-9.0,16.0,42.68500000000002,49.68500000000002,63.62999999999997,18.234999999999967,-27.37000000000003
352.0,-1.0,-9.620000000000022,-8.0,5.0,3.0,-8.620000000000022,15.240000000000046,42.120000000000026,48.740000000000045,64.75999999999995,19.67999999999994,-26.240000000000045
353.0,-1.0,-9.055000000000014,-8.0,5.0,3.0,-8.055000000000014,15.0,41.11000000000003,48.055000000000014,65.0,20.889999999999972,-25.110000000000028
354.0,-1.0,-9.0,-8.0,5.0,3.0,-8.0,14.49000000000003,40.48000000000006,46.98000000000006,65.50999999999998,21.51999999999994,-24.476666666666734
355.0,-1.0,-8.850000000000035,-7.850000000000035,5.0,3.0,-8.0,13.850000000000035,39.35000000000004,45.85000000000004,66.0,22.649999999999963,-23.133333333333375
356.0,-1.0,-8.0,-7.0,5.0,3.0,-8.0,13.0,38.36000000000003,44.720000000000056,66.27999999999994,23.639999999999972,-21.720000000000056
357.0,-1.0,-7.795000000000025,-7.0,5.0,3.0,-8.0,12.795000000000025,37.590000000000046,43.7266666666667,67.0,24.40999999999995,-20.4533333333334
358.0,-1.0,-7.230000000000027,-7.0,5.0,3.0,-8.0,12.230000000000027,36.46000000000005,42.61333333333341,67.0,25.539999999999946,-18.946666666666736
359.0,-0.3300000000000205,-6.66500000000001,-7.0,4.66500000000001,2.6650000000000102,-7.66500000000001,11.33000000000002,35.1066666666667,40.99500000000003,67.0,26.66999999999998,-17.216666666666704
360.0,0.0,-6.100000000000019,-7.0,4.100000000000019,2.100000000000019,-7.100000000000019,10.200000000000038,33.60000000000005,38.90000000000008,67.0,27.79999999999996,-15.733333333333379
361.0,0.0,-5.070000000000018,-6.070000000000018,4.0,2.0,-7.0,10.0,32.093333333333355,37.105000000000025,67.0,28.929999999999982,-14.570000000000018
362.0,0.0,-4.970000000000025,-6.0,4.0,2.0,-7.0,8.94000000000005,30.910000000000075,35.380000000000095,66.0,29.059999999999953,-13.23333333333341
363.0,0.0,-4.405000000000014,-6.0,4.0,2.0,-6.810000000000028,7.810000000000028,29.151666666666717,33.120000000000054,65.81000000000003,30.189999999999973,-11.445000000000036
364.0,0.0,-4.0,-6.0,3.6800000000000463,2.0,-6.0,6.680000000000046,27.45333333333337,31.02000000000007,65.0,31.0,-10.180000000000046
365.0,0.0,-3.5500000000000416,-6.0,3.0,2.0,-6.0,5.700000000000026,26.325000000000063,29.100000000000083,64.55000000000004,31.22499999999998,-9.050000000000042
366.0,0.0,-3.0,-6.0,3.0,2.0,-6.0,4.5600000000000565,24.34000000000009,26.55000000000011,63.420000000000044,31.789999999999978,-7.823333333333382
367.0,0.35499999999997206,-3.0,-5.290000000000056,3.0,2.0,-6.0,3.290000000000056,22.435000000000084,23.72500000000014,62.290000000000056,32.354999999999976,-6.150000000000095
368.0,0.9199999999999795,-2.160000000000041,-5.0,3.0,2.0,-5.160000000000041,2.160000000000041,21.160000000000043,21.320000000000082,61.16000000000004,32.91999999999998,-4.686666666666715
369.0,1.0,-2.0,-5.0,2.03000000000007,2.0,-5.0,1.3533333333333755,19.545000000000105,19.545000000000105,60.515000000000036,33.0,-3.53000000000007
370.0,1.0999999999999615,-1.9000000000000385,-5.0,2.0,2.0,-5.0,0.0,17.85000000000006,16.700000000000117,59.20000000000006,33.0,-2.2000000000000473
371.0,2.0,-1.0,-5.0,2.0,2.0,-4.88500000000001,-0.30666666666663905,16.078333333333372,13.42500000000005,57.69333333333336,33.0,-0.7700000000000199
372.0,2.0,-0.640000000000036,-5.0,1.640000000000036,2.0,-4.320000000000018,-1.5733333333333064,14.426666666666694,10.960000000000054,56.426666666666684,33.0,0.359999999999964
373.0,2.244999999999983,0.0,-4.510000000000034,1.0,2.0,-4.0,-2.489999999999966,13.26500000000005,9.26500000000005,55.26500000000005,33.0,1.3266666666666462
374.0,2.809999999999983,0.0,-4.0,1.0,2.0,-4.0,-3.826666666666619,11.57000000000005,7.074000000000079,53.57000000000005,33.0,2.6999999999999433
375.0,3.0,0.0,-4.0,0.6250000000000241,2.0,-3.625000000000024,-5.208333333333276,10.000000000000068,4.800000000000087,51.87500000000007,33.0,4.208333333333276
376.0,3.0,0.0,-4.0,0.06000000000001543,2.0,-3.0600000000000156,-5.939999999999984,9.080000000000021,3.1600000000000406,50.18000000000005,33.0,4.939999999999984
377.0,4.0,1.0049999999999693,-4.0,0.0,2.0099999999999385,-3.0,-7.0099999999999385,7.655000000000077,1.6550000000000766,49.31666666666678,33.0,6.344999999999923
378.0,4.0,1.5699999999999814,-3.860000000000037,0.0,3.0,-2.860000000000037,-8.139999999999963,6.360000000000038,0.3600000000000373,47.48000000000004,33.0,7.639999999999962
379.0,4.1349999999999705,2.1349999999999705,-3.0,0.0,3.0,-2.0,-9.13499999999997,5.230000000000059,-0.6349999999999705,45.88333333333344,33.0,8.769999999999941
380.0,4.699999999999974,2.6999999999999744,-3.0,0.0,3.0,-2.0,-9.699999999999974,4.300000000000026,-1.0,44.40000000000003,32.60000000000005,9.699999999999974
381.0,5.0,3.0,-3.0,-0.26499999999997176,3.0,-2.0,-10.529999999999944,3.4700000000000566,-1.5299999999999434,43.205000000000084,32.0,10.264999999999972
382.0,5.0,3.659999999999977,-3.0,-0.8299999999999885,3.0,-1.340000000000023,-11.329999999999988,2.340000000000023,-2.0,41.51000000000003,32.0,11.159999999999977
383.0,5.0,4.0,-3.0,-1.0,3.0,-1.0,-11.89499999999998,1.2100000000000404,-2.0,39.946666666666715,32.0,11.89499999999998
384.0,5.9199999999999795,4.0,-2.0800000000000205,-1.0,3.0,-1.0,-12.91999999999998,1.0,-2.0,39.05333333333335,31.08000000000002,12.91999999999998
385.0,6.0,5.0,-2.0,-2.0,3.0,-0.4750000000000257,-13.04999999999995,-0.04999999999994861,-1.9500000000000515,37.60000000000006,31.0,13.04999999999995
386.0,6.0,5.0,-2.0,-2.0,3.0,0.0,-14.0,-1.0,-1.0,36.09333333333338,30.910000000000014,14.089999999999986
387.0,6.0,5.309999999999951,-2.0,-2.309999999999951,3.0,0.0,-14.0,-1.0,-1.0,34.69000000000005,30.345000000000024,14.654999999999976
388.0,6.439999999999956,6.0,-2.0,-3.0,3.0,0.0,-14.439999999999957,-1.0,-0.7800000000000218,33.560000000000045,30.0,15.0
389.0,7.0,6.0,-2.0,-3.0,3.0,0.0,-15.0,-1.0,-0.21500000000002312,32.240000000000066,29.715000000000025,15.569999999999954
390.0,7.0,6.6999999999999424,-1.6500000000000288,-3.3499999999999712,3.0,0.0,-15.0,-1.6999999999999422,0.6999999999999422,30.85000000000007,29.15000000000003,16.0
391.0,7.414999999999978,7.0,-1.0850000000000217,-3.9149999999999783,3.0,0.0,-15.0,-2.0,1.8299999999999563,29.670000000000044,28.585000000000022,16.0
392.0,7.979999999999964,7.0,-1.0,-4.0,3.0,0.0,-15.0,-2.0,2.959999999999928,29.020000000000035,28.020000000000035,16.0
393.0,8.0,7.0,-1.0,-4.0449999999999795,3.0,1.0,-14.910000000000041,-2.0,3.6049999999999525,27.56166666666672,27.910000000000043,16.54499999999998
394.0,8.0,7.0,-1.0,-4.609999999999989,3.0,1.0,-14.0,-1.7800000000000218,4.959999999999974,26.280000000000022,27.0,17.0
395.0,8.0,7.3499999999999615,-1.0,-5.0,3.0,1.0,-13.650000000000038,-1.0,6.3499999999999615,25.32500000000002,26.650000000000038,17.0
396.0,8.0,8.0,-1.0,-5.0,3.0,1.0,-13.0,-1.0,7.479999999999964,24.520000000000035,26.0,17.0
397.0,8.0,8.0,-1.0,-5.0,3.0,1.304999999999982,-12.695000000000018,-1.0,8.609999999999964,23.390000000000036,25.390000000000036,17.0
398.0,8.0,8.0,-0.630000000000025,-5.0,3.0,1.869999999999975,-12.130000000000026,-0.630000000000025,9.73999999999995,22.26000000000005,25.0,17.0
399.0,8.0,8.0,-0.06500000000001671,-5.869999999999966,3.0,2.0,-11.130000000000033,-0.06500000000001671,10.869999999999967,21.130000000000035,24.130000000000035,17.0
400.0,8.0,8.0,0.0,-6.0,3.0,2.0,-11.0,0.9999999999999357,11.0,21.0,24.0,17.0
401.0,8.0,8.0,0.0,-6.0,3.0,2.0,-9.93500000000002,1.1299999999999608,12.0,19.87000000000004,22.93500000000002,16.43500000000002
402.0,7.7400000000000615,8.0,0.0,-6.0,3.0,2.0,-9.370000000000031,2.0,12.129999999999969,18.740000000000062,22.37000000000003,16.0
403.0,7.0,8.0,0.0,-6.0,3.0,2.0,-8.610000000000053,2.0,12.694999999999974,17.610000000000053,21.610000000000053,16.0
404.0,7.0,8.0,0.0,-6.0,3.0,2.519999999999941,-8.0,2.0,12.74000000000003,16.74000000000003,21.0,16.0
405.0,7.0,8.0,0.0,-6.0,3.0,3.0,-7.675000000000013,2.0,12.175000000000013,16.17500000000001,20.350000000000026,15.675000000000013
406.0,7.0,8.0,0.0,-6.0,3.0,3.0,-7.110000000000021,2.0,12.0,15.220000000000041,19.61000000000002,15.11000000000002
407.0,7.0,7.090000000000023,0.0,-6.0,3.0,3.0,-7.0,2.0,11.090000000000023,14.090000000000023,19.045000000000012,15.0
408.0,6.480000000000027,7.0,0.0,-6.0,3.0,3.0,-6.0,2.0,10.960000000000054,13.460000000000054,18.480000000000025,14.980000000000027
409.0,6.0,7.0,0.0,-6.0,3.0,3.0,-5.830000000000031,2.0,9.915000000000015,12.330000000000032,17.83000000000003,14.415000000000015
410.0,6.0,7.0,0.0,-6.0,3.0,3.0,-5.0,1.8500000000000256,9.20000000000005,11.20000000000005,16.850000000000026,14.0
411.0,6.0,7.0,0.0,-6.0,3.0,3.0,-4.570000000000046,1.2850000000000228,8.285000000000023,10.285000000000023,16.28500000000002,13.570000000000046
412.0,5.720000000000025,7.0,0.0,-6.0,3.0,3.0,-4.0,1.0,7.440000000000049,9.44000000000005,15.44000000000005,13.0
413.0,5.15500000000003,6.31000000000006,0.0,-6.0,2.65500000000003,3.0,-4.0,0.6550000000000299,6.080000000000083,8.31000000000006,14.65500000000003,13.0
414.0,5.0,6.0,0.0,-6.0,2.090000000000023,3.0,-3.1800000000000463,0.09000000000002312,4.710000000000055,7.180000000000046,14.090000000000023,12.180000000000046
415.0,5.0,6.0,0.0,-6.0,2.0,3.0,-3.0,0.0,4.025000000000037,6.0500000000000735,13.050000000000074,12.0
416.0,4.9200000000000434,6.0,0.0,-6.0,2.0,3.0,-3.0,-1.0,2.9200000000000434,5.4200000000000434,12.460000000000022,11.460000000000022
417.0,4.0,6.0,0.0,-6.0,2.0,3.0,-2.895000000000012,-1.0,1.7900000000000238,4.290000000000024,11.790000000000024,11.0
418.0,4.0,6.0,0.0,-6.0,2.0,3.0,-2.3300000000000205,-1.1699999999999795,0.6600000000000411,3.160000000000041,10.660000000000041,10.660000000000041
419.0,4.0,6.0,0.0,-6.0,2.0,3.0,-2.0,-1.734999999999981,0.0,2.2650000000000188,10.0,10.0
420.0,3.4000000000000385,5.4000000000000385,0.5999999999999615,-5.4000000000000385,2.0,3.0,-2.0,-2.0,-0.5999999999999615,1.4000000000000385,9.400000000000038,10.0
421.0,3.0,5.0,1.0,-5.0,1.635000000000026,3.0,-2.0,-2.729999999999948,-1.0,0.270000000000052,8.635000000000026,9.270000000000053
422.0,3.0,5.0,1.0,-5.0,1.070000000000018,3.0,-2.0,-3.429999999999982,-1.859999999999964,-0.429999999999982,8.070000000000018,9.0
423.0,3.0,5.0,1.0,-5.0,1.0,3.0,-2.0,-3.994999999999967,-2.0,-0.9949999999999669,7.010000000000066,9.0
424.0,2.880000000000041,5.0,1.0,-5.0,1.0,3.0,-2.0,-4.119999999999959,-3.0599999999999796,-2.119999999999959,6.440000000000021,8.44000000000002
425.0,2.0,5.0,1.0,-5.0,1.0,3.0,-1.7500000000000642,-5.0,-3.624999999999968,-3.2499999999999356,5.750000000000064,8.0
426.0,2.0,5.0,1.0,-5.0,1.0,3.0,-1.0,-5.0,-4.0,-4.0,5.0,8.0
427.0,2.0,5.0,1.0,-5.0,1.0,3.0,-1.0,-5.254999999999969,-4.5099999999999385,-4.0,4.4900000000000615,7.745000000000031
428.0,2.0,5.0,1.0,-4.360000000000028,1.0,3.0,-1.0,-5.819999999999986,-5.0,-4.639999999999972,4.0,7.180000000000014
429.0,2.0,4.615000000000022,1.0,-4.0,0.23000000000004428,3.0,-1.0,-6.0,-5.769999999999956,-5.769999999999956,3.2300000000000444,7.0
430.0,2.0,4.050000000000013,1.4499999999999873,-4.0,0.0,3.0,-1.0,-6.0,-6.0,-6.449999999999987,2.5500000000000127,7.0
431.0,1.9700000000000566,4.0,2.0,-4.0,0.0,3.0,-1.0,-7.0,-6.029999999999943,-7.029999999999943,2.0,7.0
432.0,1.0,4.0,2.0,-4.0,0.0,3.0,-1.0,-7.0,-7.0,-8.079999999999984,1.8400000000000334,6.920000000000017
433.0,1.0,4.0,2.0,-4.0,0.0,3.0,-1.0,-7.0,-7.0,-8.644999999999973,1.0,6.355000000000027
434.0,1.0,4.0,2.0,-4.0,0.0,3.0,-1.0,-7.0,-7.0,-9.419999999999952,0.5800000000000476,6.0
435.0,1.0,4.0,2.0,-4.0,0.0,3.0,-1.0,-7.0,-7.0,-10.0,0.0,6.0
436.0,1.0,4.0,2.0,-4.0,0.0,3.0,-1.0,-7.0,-7.0,-10.33999999999997,-0.33999999999996916,6.0
437.0,1.0,4.0,2.0,-3.5950000000000246,0.0,3.0,-1.0,-7.0,-7.0,-10.904999999999976,-0.9049999999999756,6.0
438.0,1.0,4.0,2.0,-3.030000000000038,0.0,3.0,-1.0,-7.0,-7.0,-11.939999999999925,-1.0,6.0
439.0,1.0,4.0,2.0,-3.0,0.0,3.0,-1.0,-8.0,-7.0,-12.034999999999977,-1.0,6.0
440.0,1.0,4.199999999999974,2.0,-3.0,0.0,3.1999999999999744,-1.0,-8.0,-7.199999999999974,-12.599999999999987,-1.0,6.0
441.0,1.0,5.0,2.0,-3.0,0.0,4.0,-1.0,-8.0,-8.0,-13.0,-1.3299999999999563,5.835000000000022
442.0,1.0,5.0,2.0,-3.0,0.0,4.0,-1.0,-8.0,-8.0,-13.45999999999996,-2.0,5.27000000000002
443.0,1.0,4.7050000000000205,2.0,-3.0,0.0,4.0,-1.0,-8.0,-8.0,-14.0,-2.0,5.0
444.0,1.0,4.140000000000027,2.0,-3.0,0.0,4.0,-1.0,-8.0,-8.0,-14.359999999999973,-2.359999999999973,5.0
445.0,1.0,4.0,2.0,-3.0,0.0,3.1500000000000385,-1.0,-8.0,-8.0,-14.924999999999981,-2.9249999999999807,5.0
446.0,1.0,4.0,2.0,-3.0,0.0,3.0,-1.0,-8.0,-8.979999999999931,-15.0,-3.0,5.0
447.0,1.0,4.0,2.0,-3.0,0.0,3.0,-1.0,-8.109999999999957,-9.0,-15.109999999999957,-3.0,5.0
448.0,1.0,4.0,2.0,-3.0,0.0,3.0,-1.0,-9.0,-9.0,-16.0,-3.239999999999933,5.0
449.0,1.0,4.0,2.0,-3.0,0.0,3.0,-1.0,-9.0,-9.0,-16.0,-4.0,5.0
450.0,1.0,4.0,2.0,-3.0,0.0,3.0,-1.0,-9.0,-9.0,-16.499999999999936,-4.0,5.0
451.0,1.0,4.0,2.0,-3.0,0.0,3.0,-1.0,-9.0,-9.0,-17.0,-4.0,5.0
452.0,1.0,4.0,2.0,-3.0,0.0,3.0,-1.0,-9.0,-9.0,-17.0,-4.0,5.0
453.0,1.0,4.0,2.0,-3.0,0.0,3.0,-1.0,-9.0,-9.0,-17.0,-4.444999999999986,5.0
454.0,1.0,4.0,2.0,-3.0,0.0,3.0,-1.0,-8.0,-9.0,-17.0,-5.0,5.0
455.0,1.0,4.0,2.0,-3.0,0.0,3.0,-1.0,-8.0,-9.0,-17.149999999999963,-5.0,5.0
456.0,1.0,4.0,2.0,-3.0,0.0,3.0,-1.0,-8.0,-9.0,-18.0,-5.0,5.0
457.0,1.0,4.0,2.0,-2.5900000000000496,0.0,3.0,-1.0,-8.0,-9.0,-18.0,-5.0,5.0
458.0,1.0,4.0,2.0,-2.0,0.0,3.0,-1.0,-8.0,-9.0,-18.0,-5.0,5.0
459.0,1.0,4.0,2.0,-2.0,0.0,3.0,-1.0,-8.0,-9.0,-18.0,-5.0,5.0
460.0,1.0,4.0,2.0,-2.0,0.0,3.0,-1.0,-8.399999999999974,-9.0,-18.0,-5.0,5.0
461.0,1.0,4.0,2.0,-2.0,0.0,3.0,-1.0,-8.96499999999996,-9.0,-18.46499999999996,-5.0,5.0
462.0,1.0,4.0,2.0,-2.0,0.0,3.0,-1.0,-9.0,-9.0,-19.0,-5.059999999999951,5.0
463.0,1.0,4.0,2.0,-2.0,0.0,3.0,-1.0,-9.0,-9.0,-19.0,-6.0,5.0
464.0,0.8400000000000232,4.0,2.0,-2.0,0.0,3.0,-1.0,-9.0,-9.0,-19.0,-6.0,5.0
465.0,0.2750000000000209,4.0,2.0,-2.0,0.0,3.0,-1.0,-9.0,-9.0,-19.0,-6.0,5.0
466.0,0.0,4.0,2.0,-2.0,0.0,3.0,-1.0,-9.0,-9.579999999999956,-19.0,-6.0,5.0
467.0,0.0,4.0,2.709999999999944,-2.0,0.0,3.0,-1.0,-9.0,-10.0,-19.0,-6.0,5.0
468.0,0.0,4.0,3.0,-2.0,-0.8399999999999589,3.0,-1.0,-9.0,-10.0,-19.0,-6.0,5.0
469.0,0.0,4.0,3.0,-2.0,-1.0,3.0,-1.0,-9.0,-10.0,-19.0,-6.0,5.0
470.0,0.0,4.0,3.0,-2.0,-1.0,3.0,-1.0,-9.0,-10.0,-20.0,-6.0,5.0
471.0,0.0,4.0,3.0,-2.0,-1.0,3.0,-1.0,-9.0,-10.0,-20.0,-6.0,5.0
472.0,0.0,4.0,3.0,-2.0,-1.0,3.0,-1.0,-9.0,-10.0,-20.0,-6.0,5.0
473.0,0.0,4.0,3.0,-2.0,-1.0,3.0,-1.0,-9.0,-10.0,-20.0,-6.0,5.0
474.0,0.0,4.0,3.0,-2.0,-1.0,3.0,-1.0,-9.0,-9.380000000000033,-20.0,-6.0,5.0
475.0,0.0,4.0,3.0,-2.0,-1.0,3.0,-1.0,-9.0,-9.0,-20.0,-6.0,5.0
476.0,0.0,4.0,3.0,-2.0,-1.0,3.0,-1.0,-9.0,-9.0,-20.0,-6.0,5.0
477.0,0.0,4.0,3.0,-2.0,-1.0,3.0,0.0,-8.990000000000062,-9.0,-20.0,-6.004999999999969,5.0
478.0,0.0,4.0,3.0,-2.0,-1.0,3.0,0.0,-8.0,-9.0,-20.0,-6.569999999999982,5.0
479.0,0.0,4.0,3.0,-2.0,-1.0,3.0,0.0,-8.0,-9.0,-20.0,-7.0,5.0
480.0,0.0,4.0,3.0,-2.0,-1.0,3.0,0.0,-8.399999999999949,-9.0,-20.0,-7.0,5.0
481.0,0.0,3.4700000000000566,3.0,-2.0,-1.0,3.0,0.0,-9.0,-9.0,-20.0,-7.0,5.0
482.0,0.0,3.0,3.0,-2.0,-1.0,3.0,0.0,-9.0,-9.0,-20.0,-7.0,5.0
483.0,0.0,3.0,3.0,-2.0,-1.0,3.0,0.0,-9.0,-9.789999999999946,-20.0,-7.0,5.0
484.0,0.0,3.0,3.0,-2.0,-1.0,3.0,0.0,-9.0,-10.0,-20.0,-7.0,5.0
485.0,0.0,3.0,3.0,-2.0,-1.0,3.0,0.0,-9.0,-10.0,-20.0,-7.0,5.0
486.0,0.0,3.0,3.0,-2.0,-1.0,3.0,0.0,-9.0,-10.0,-20.0,-7.0,5.0
487.0,0.0,3.0,3.0,-2.0,-1.0,3.0,0.0,-9.0,-10.0,-20.0,-7.0,5.0
488.0,0.0,3.0,3.0,-2.0,-1.0,3.0,0.0,-9.0,-10.0,-20.0,-7.0,5.0
489.0,0.0,3.0,3.0,-2.0,-1.0,3.0,0.0,-9.0,-10.0,-20.0,-7.0,5.0
490.0,0.0,3.0,3.0,-2.0,-1.0,3.0,0.0,-9.0,-10.0,-20.0,-7.0,5.0
491.0,0.0,3.0,2.5850000000000217,-2.0,-1.0,3.0,-0.41499999999997816,-9.0,-10.0,-20.0,-7.0,5.0
492.0,0.0,3.0,2.020000000000036,-2.0,-1.0,3.0,-0.979999999999964,-9.0,-10.0,-20.0,-7.0,5.0
493.0,0.0,3.0,2.0,-2.0,-1.0,3.0,-1.0,-9.0,-10.0,-20.0,-7.0,5.0
494.0,0.0,3.0,2.0,-2.0,-1.0,3.0,-1.0,-9.0,-10.0,-20.0,-7.0,5.0
495.0,0.0,3.0,2.0,-2.0,-1.0,3.0,-1.0,-9.0,-10.0,-20.349999999999937,-7.0,5.0
496.0,0.0,3.0,2.0,-2.0,-1.0,3.0,-1.0,-9.0,-10.0,-21.0,-7.0,5.0
497.0,0.0,3.0,2.0,-2.0,-1.0,3.0,-1.0,-9.0,-10.0,-21.0,-7.0,5.0
498.0,0.0,3.0,2.0,-2.0,-1.0,3.0,-1.0,-9.0,-10.0,-21.0,-7.0,5.0
499.0,0.0,3.0,2.0,-2.0,-1.0,3.0,-0.13000000000003342,-9.0,-10.0,-21.0,-7.0,5.0
500.0,0.0,3.0,2.0,-2.0,-1.0,3.0,0.0,-9.0,-10.0,-21.0,-7.0,5.0
501.0,0.0,3.0,2.0,-2.0,-1.0,3.0,0.0,-9.0,-10.0,-21.0,-7.0,5.0
502.0,0.0,3.0,2.0,-2.0,-1.0,3.0,0.0,-9.0,-10.0,-21.0,-7.0,5.0
503.0,0.0,3.389999999999947,2.0,-2.0,-1.0,3.0,-0.19499999999997333,-9.0,-10.0,-21.0,-7.0,5.0
504.0,0.0,4.0,2.0,-2.0,-1.0,3.0,-0.7599999999999705,-9.0,-10.0,-21.0,-7.0,5.0
505.0,0.0,4.0,2.0,-2.0,-1.0,3.0,-1.0,-9.324999999999966,-10.324999999999966,-21.0,-7.0,5.0
506.0,0.0,4.0,2.0,-2.0,-1.0,3.0,-1.0,-9.889999999999972,-10.889999999999972,-21.0,-7.0,4.610000000000028
507.0,0.0,4.0,2.0,-2.0,-1.0,3.0,-1.0,-10.0,-11.0,-21.0,-7.0,4.045000000000041
508.0,1.0,4.0,2.519999999999973,-2.0,-1.0,3.0,-1.0,-10.0,-11.0,-21.0,-7.0,4.0
509.0,1.0,4.0,3.0,-2.0,-1.0,3.0,-1.0,-10.0,-11.0,-21.0,-7.0,4.0
510.0,1.0,4.0,2.850000000000026,-2.0,-1.0,3.0,-1.0,-10.0,-11.0,-21.0,-7.299999999999948,4.0
511.0,1.0,4.0,2.285000000000023,-2.0,-1.0,3.0,-1.0,-10.0,-11.0,-21.0,-8.0,4.0
512.0,1.0,4.0,2.0,-2.0,-0.44000000000008477,3.0,-1.0,-10.0,-11.0,-21.0,-8.0,4.0
513.0,1.0,3.6550000000000398,2.0,-2.0,0.0,3.0,-1.0,-10.0,-11.0,-21.0,-8.0,4.0
514.0,0.18000000000004623,3.090000000000023,2.0,-2.0,0.0,3.0,-1.0,-10.0,-11.0,-21.0,-8.0,4.0
515.0,0.0,3.0,2.0,-2.0,0.0,3.0,-1.0,-10.0,-11.0,-21.0,-8.0,4.0
516.0,0.0,3.0,2.0,-2.0,-1.0,3.0,-1.0,-10.0,-11.0,-21.0,-8.0,4.0
517.0,0.0,3.0,2.0,-2.0,-1.0,3.0,-1.0,-10.0,-11.0,-21.0,-8.0,4.0
518.0,0.0,3.0,2.0,-2.0,-1.0,3.0,-1.0,-10.0,-11.0,-21.0,-8.0,4.0
519.0,0.0,3.0,2.0,-2.0,-1.0,3.0,-1.0,-10.0,-11.0,-21.0,-8.0,4.0
520.0,0.0,3.0,2.0,-2.0,-1.0,3.0,-1.0,-10.0,-11.0,-21.0,-8.0,4.0
521.0,0.0,3.0,2.0,-2.0,-1.0,3.0,-1.0,-10.0,-11.0,-21.0,-8.0,4.0
522.0,0.0,3.0,2.0,-2.0,-1.0,3.0,-1.0,-10.0,-11.0,-21.429999999999982,-8.0,4.0
523.0,0.0,3.0,2.0,-2.0,-1.0,3.0,-1.0,-10.0,-11.0,-21.994999999999997,-8.0,4.0
524.0,0.0,3.0,2.0,-2.0,-1.0,3.0,-1.0,-10.0,-11.0,-22.0,-8.0,4.0
525.0,0.0,3.0,2.0,-2.0,-1.0,3.0,-1.0,-10.0,-11.0,-22.0,-8.0,4.0
526.0,0.0,3.0,2.0,-2.0,-1.0,3.0,-1.0,-10.0,-11.0,-22.0,-8.0,4.0
527.0,0.0,3.0,2.0,-2.0,-0.7450000000000314,3.0,-1.0,-10.0,-11.0,-22.0,-8.0,4.0
528.0,0.0,3.0,2.0,-2.0,-0.18000000000004623,3.0,-1.0,-10.0,-11.0,-22.0,-8.0,4.0
529.0,0.0,3.0,2.0,-2.0,0.0,3.0,-1.0,-10.0,-11.769999999999941,-22.0,-8.0,4.0
530.0,0.0,3.0,2.0,-2.0,-0.8999999999999744,3.0,-1.0,-10.0,-12.0,-22.0,-8.0,4.0
531.0,0.0,3.0,2.0,-2.0,-1.0,3.0,-1.0,-10.0,-11.969999999999995,-22.0,-8.0,4.0
532.0,0.0,3.0,2.0,-2.0,-1.0,3.0,-1.0,-10.0,-11.0,-22.0,-8.0,4.0
533.0,0.0,3.0,2.0,-2.0,-1.0,3.0,-1.0,-10.0,-11.0,-22.0,-8.0,4.0
534.0,0.0,3.0,2.0,-2.0,-1.0,3.0,-1.0,-10.0,-11.0,-22.0,-8.0,4.0
535.0,0.0,3.0,2.0,-2.0,-1.0,3.0,-1.0,-10.0,-11.0,-22.0,-8.0,4.0
536.0,0.0,3.0,2.0,-2.0,-1.0,3.0,-1.0,-10.0,-11.0,-22.0,-8.339999999999959,4.0
537.0,0.0,3.0,2.0,-2.0,-1.0,3.0,-1.0,-10.0,-11.404999999999976,-22.0,-8.904999999999976,4.0
538.0,0.0,3.0,2.0,-2.0,-1.0,3.0,-1.0,-10.0,-11.969999999999992,-22.0,-9.0,4.0
539.0,0.0,3.0,3.0,-2.0,-1.0,3.0,-1.0,-10.0,-12.0,-22.0,-9.0,4.0
540.0,0.0,3.0,3.0,-2.0,-1.0,3.0,-1.0,-10.0,-12.0,-22.0,-9.0,4.0
541.0,0.0,3.0,3.0,-2.0,-1.0,3.0,-1.0,-10.329999999999956,-12.0,-22.0,-9.0,4.0
542.0,0.0,3.0,3.0,-2.0,-1.0,3.0,-1.0,-11.0,-12.0,-22.0,-9.0,4.0
543.0,0.0,3.0,3.0,-2.0,-1.0,3.0,-1.0,-11.0,-12.0,-22.589999999999947,-9.0,4.0
544.0,0.0,3.0,3.0,-1.280000000000072,-1.0,3.0,-1.0,-11.0,-12.0,-23.0,-9.0,4.0
545.0,0.0,3.0,3.0,-1.0,-1.0,3.0,-1.0,-11.0,-12.0,-23.0,-9.0,4.0
546.0,0.0,3.0,2.020000000000005,-1.0,-1.0,3.0,-1.0,-11.0,-12.489999999999997,-23.0,-9.0,4.0
547.0,0.0,3.0,2.0,-1.0,-1.0,3.0,-1.0,-11.0,-13.0,-23.0,-9.0,4.0
548.0,0.0,3.0,2.0,-1.0,-1.0,3.0,-1.0,-11.0,-13.0,-23.0,-9.0,4.0
549.0,0.0,3.0,2.0,-1.0,-1.0,3.0,-1.0,-11.0,-13.0,-23.0,-9.0,4.0
550.0,0.0,3.0,2.0,-1.0,-1.0,3.0,-1.0,-11.0,-13.0,-23.0,-9.0,4.0
551.0,0.0,3.0,2.0,-1.0,-1.0,3.0,-1.0,-11.0,-13.0,-23.0,-9.0,4.0
552.0,0.0,3.0,2.0,-1.0,-1.0,3.0,-1.0,-11.0,-13.0,-23.0,-9.379999999999969,4.0
553.0,0.0,3.0,2.0,-1.0,-1.0,3.0,-1.0,-11.0,-13.0,-23.444999999999986,-9.944999999999986,3.1100000000000283
554.0,0.0,3.0,2.0,-1.0,-1.0,2.0,-1.0,-11.0,-13.0,-24.0,-10.0,3.0
555.0,0.0,3.0,2.0,-1.0,-1.0,2.0,-1.0,-11.0,-13.0,-24.0,-10.0,3.0
556.0,0.0,3.0,2.0,-1.0,-1.0,2.0,-1.0,-11.139999999999972,-13.0,-24.0,-10.0,3.0
557.0,0.4099999999999769,3.0,2.0,-1.2049999999999885,-0.5900000000000232,2.0,-1.0,-11.704999999999988,-13.0,-24.0,-10.0,3.0
558.0,1.0,3.0,2.0,-1.7699999999999705,0.0,2.0,-1.0,-12.0,-13.53999999999994,-24.0,-10.0,3.0
559.0,1.0,3.0,2.0,-2.0,0.0,2.0,-1.0,-12.0,-14.0,-24.0,-10.0,3.0
560.0,1.0,3.0,2.0,-2.0,0.0,2.0,-1.0,-12.0,-14.0,-24.0,-10.0,3.0
561.0,1.0,3.0,2.0,-2.0,0.0,2.464999999999991,-1.0,-12.0,-14.0,-24.0,-10.0,3.0
562.0,1.0,3.0,2.0,-2.0,0.0,3.0,-1.0,-12.0,-14.0,-25.0,-11.0,3.0
563.0,1.0,3.0,2.0,-2.0,0.0,3.0,-1.0,-12.0,-14.0,-25.0,-11.0,3.0
564.0,1.0,3.0,2.0,-2.0,0.0,3.0,-1.0,-12.0,-14.0,-25.0,-11.0,3.0
565.0,1.0,3.0,2.0,-2.0,0.0,3.0,-1.0,-12.0,-14.0,-25.0,-11.0,3.0
566.0,1.0,3.0,2.0,-2.0,0.0,2.420000000000054,-1.0,-12.0,-14.0,-25.0,-11.0,2.420000000000054
567.0,1.0,3.0,2.0,-2.0,0.0,2.0,-1.0,-12.0,-14.709999999999926,-25.0,-11.0,2.0
568.0,1.0,3.0,2.0,-2.0,0.0,2.0,-1.0,-12.0,-15.0,-25.0,-11.0,2.0
569.0,0.030000000000007687,3.0,2.0,-2.0,0.0,2.0,-1.0,-12.0,-15.0,-25.96999999999999,-11.0,2.0
570.0,0.0,3.0,2.0,-2.0,0.0,2.0,-1.0,-12.0,-15.0,-26.0,-11.54999999999995,2.0
571.0,0.0,3.0,2.0,-2.0,0.0,2.0,-1.0,-12.0,-15.0,-26.0,-12.0,2.114999999999965
572.0,0.0,3.0,2.0,-2.0,0.0,2.0,-1.0,-12.359999999999964,-15.0,-26.0,-12.0,2.679999999999982
573.0,0.0,3.0,2.0,-1.7550000000000328,0.0,2.0,-1.0,-13.0,-15.0,-26.0,-12.0,3.0
574.0,0.0,3.0,2.0,-1.1900000000000488,0.0,2.0,-1.0,-13.0,-15.0,-26.0,-12.0,3.0
575.0,0.0,3.0,2.0,-1.0,0.0,2.0,-1.0,-13.0,-15.0,-26.749999999999936,-12.0,3.0
576.0,0.0,3.0,2.0,-1.0,0.0,2.0,-1.0,-13.0,-15.439999999999985,-27.0,-12.0,3.0
577.0,0.0,2.0,2.0,-1.0,-0.5050000000000007,2.0,-1.0,-13.0,-16.0,-27.0,-12.0,3.0
578.0,0.0,2.0,2.0,-1.0,-1.0,2.0,-1.0,-13.0,-16.0,-27.0,-12.0,3.0
579.0,0.0,2.0,2.0,-1.0,-1.0,2.0,-1.0,-13.0,-16.0,-27.0,-12.269999999999941,3.0
580.0,0.0,2.0,2.0,-1.0,-1.0,2.0,-1.0,-13.0,-16.0,-27.399999999999974,-13.0,3.0
581.0,0.0,2.0,2.0,-1.0,-1.0,2.0,-1.0,-13.0,-16.0,-28.0,-13.0,3.0
582.0,0.0,2.0,2.0,-1.0,-1.0,2.0,-1.0,-13.0,-16.65999999999991,-28.0,-13.0,2.3400000000000873
583.0,0.0,2.0,2.0,-1.0,-1.0,2.0,-1.0,-13.789999999999946,-17.0,-28.0,-13.0,2.0
584.0,0.0,2.0,2.0,-1.0,-1.0,2.0,-1.0,-14.0,-17.0,-28.0,-13.0,2.0
585.0,0.0,2.0,2.0,-1.0,-1.0,2.0,-1.0,-14.0,-17.02499999999994,-29.0,-13.024999999999942,2.0
586.0,0.0,2.0,2.0,-1.0,-1.0,2.0,-1.0,-14.0,-17.589999999999957,-29.0,-13.589999999999959,2.0
587.0,0.0,2.0,2.0,-1.0,-1.0,2.0,-1.0,-14.0,-18.0,-29.0,-14.0,2.0
588.0,0.0,2.0,2.0,-1.0,-1.0,2.0,-1.0,-14.439999999999985,-18.0,-29.21999999999999,-14.0,2.0
589.0,0.0,2.0,2.0,-1.0,-1.0,2.0,-1.0,-15.0,-18.0,-29.78499999999997,-14.0,2.0
590.0,0.0,2.0,2.0,-1.0,-1.0,2.0,-1.0,-15.0,-18.699999999999925,-30.0,-14.0,1.300000000000077
591.0,0.0,2.0,2.0,-1.0,-1.0,2.0,-1.0,-15.0,-19.0,-30.0,-14.414999999999978,1.0
592.0,0.0,2.0,2.0,-1.0,-1.0,2.0,-1.0,-15.0,-19.0,-30.479999999999993,-14.979999999999995,1.0
593.0,0.0,2.0,2.0,-1.0,-1.0,2.0,-1.0,-15.0,-19.0,-31.0,-15.0,1.0
594.0,0.0,2.0,2.0,-1.0,-1.0,2.0,-1.0,-15.109999999999964,-19.0,-31.0,-15.0,1.0
595.0,0.0,2.0,2.0,-1.0,-1.0,2.0,-1.0,-15.674999999999981,-19.17499999999998,-31.17499999999998,-15.349999999999962,1.0
596.0,0.0,2.2399999999999665,2.0,-1.0,-1.0,2.0,-1.0,-16.0,-19.739999999999966,-31.739999999999966,-16.0,1.0
597.0,0.0,2.80499999999995,2.0,-1.0,-1.0,2.0,-1.0,-16.0,-20.0,-32.0,-16.0,1.0
598.0,0.0,3.0,2.0,-1.0,-1.0,2.0,-1.0,-16.0,-20.0,-32.0,-16.0,1.0
599.0,0.0,3.0,2.0,-1.0,-1.0,2.0,-1.0,-16.0,-20.0,-32.86999999999997,-16.0,1.0
600.0,0.0,3.0,2.0,-1.0,-1.0,2.0,-1.0,-16.0,-20.0,-33.0,-17.0,1.0
601.0,0.0,3.0,2.0,-1.0,-1.0,2.0,-1.0,-16.0,-20.0,-33.0,-17.0,1.0
602.0,0.0,3.0,2.0,-1.0,-1.0,2.0,-1.0,-16.0,-20.12999999999997,-33.25999999999994,-17.0,0.7400000000000617
603.0,0.0,3.0,2.0,-1.0,-1.0,2.0,-1.0,-16.389999999999972,-20.694999999999986,-34.0,-17.194999999999986,0.0
604.0,0.0,3.0,2.0,-1.0,-1.0,2.0,-1.0,-17.0,-21.0,-34.0,-17.75999999999997,0.0
605.0,0.0,3.0,2.0,-1.0,-1.0,2.0,-1.0,-17.0,-21.0,-34.64999999999991,-18.0,0.0
606.0,0.0,3.0,2.0,-1.0,-1.0,2.0,-1.0,-17.0,-21.0,-35.0,-18.0,0.0
607.0,0.0,2.5450000000000115,2.0,-1.0,-1.0,2.0,-1.0,-17.0,-21.0,-35.0,-18.0,0.0
608.0,0.0,2.0,2.519999999999941,-1.0,-1.0,2.0,-1.0,-17.0,-21.51999999999994,-35.03999999999988,-18.51999999999994,0.0
609.0,0.0,2.0,3.0,-1.0,-1.0,2.0,-1.0,-17.0,-22.0,-36.0,-19.0,0.0
610.0,0.0,2.0,3.0,-1.0,-1.0,2.0,-1.0,-17.0,-22.0,-36.0,-19.0,0.0
611.0,-0.429999999999982,2.0,3.0,-1.0,-1.0,2.0,-1.0,-17.214999999999993,-22.0,-36.21499999999999,-19.0,0.0
612.0,-1.0,1.7200000000000282,2.720000000000028,-1.0,-1.0,2.0,-1.0,-17.779999999999973,-22.0,-36.77999999999997,-19.559999999999942,0.0
613.0,-1.0,1.1550000000000398,2.1550000000000398,-0.31000000000007966,-1.0,2.0,-1.0,-18.0,-22.0,-37.0,-20.0,0.0
614.0,-1.0,1.0,2.0,0.0,-1.0,2.0,-1.0,-18.0,-22.0,-37.0,-20.0,0.0
615.0,-1.0,1.0,2.0,0.0,-1.0,2.0,-1.0,-18.0,-22.474999999999994,-37.474999999999994,-20.0,0.0
616.0,-1.0,1.0,2.0,0.0,-1.0,2.0,-0.9600000000000539,-18.0,-23.0,-38.0,-20.07999999999989,0.0
617.0,-1.0,1.0,2.0,0.0,-1.0,2.0,-0.39500000000003727,-18.0,-23.0,-38.0,-21.0,0.0
618.0,-1.0,1.0,2.0,0.0,-1.0,2.0,0.0,-18.0,-23.0,-38.16999999999998,-21.0,0.0
619.0,-1.0,1.0,2.0,0.0,-1.0,2.0,0.0,-18.0,-23.0,-38.734999999999964,-21.0,0.0
620.0,-1.0,1.0,2.0,0.0,-1.0,2.0,0.0,-18.0,-23.0,-39.0,-21.299999999999947,-0.5999999999998973
621.0,-1.0,1.0,2.0,0.0,-1.0,2.0,0.0,-18.72999999999993,-23.0,-39.0,-21.864999999999966,-1.0
622.0,-1.0,1.0,2.0,0.0,-1.0,2.0,0.0,-19.0,-23.0,-39.0,-22.0,-1.0
623.0,-1.0,1.0,2.0,0.0,-1.0,2.0,0.0,-19.0,-23.494999999999997,-39.989999999999995,-22.0,-1.0
624.0,-1.0,1.0,2.0,0.0,-1.0,2.0,0.0,-19.0,-24.0,-40.0,-22.1199999999999,-1.0
625.0,-1.0,1.0,2.0,0.0,-1.0,2.0,0.0,-19.0,-24.0,-40.0,-23.0,-1.2499999999999358
626.0,-1.0,0.8100000000000154,2.0,0.0,-1.0,2.0,0.0,-19.0,-24.0,-40.0,-23.0,-2.0
627.0,-1.0,0.24500000000003147,2.0,0.0,-1.0,2.0,0.0,-19.0,-24.0,-40.509999999999934,-23.0,-2.0
628.0,-1.3199999999999537,0.0,2.0,0.0,-1.0,2.0,0.0,-19.0,-24.0,-41.0,-23.0,-2.0
629.0,-1.8849999999999705,0.0,2.0,0.0,-1.769999999999941,2.0,0.0,-19.0,-24.0,-41.0,-23.0,-2.0
630.0,-2.0,0.0,2.0,0.0,-2.0,1.5500000000000127,0.0,-19.0,-24.0,-41.0,-23.899999999999974,-2.0
631.0,-2.0,0.0,2.0,0.0,-2.0,1.0,0.0,-19.01499999999994,-24.0,-41.0,-24.0,-2.0299999999998795
632.0,-2.0,0.0,2.0,0.0,-2.0,1.0,0.0,-19.579999999999956,-24.0,-41.15999999999991,-24.0,-3.0
633.0,-2.144999999999973,0.0,2.0,0.0,-2.0,1.0,0.0,-20.0,-24.0,-42.0,-24.0,-3.0
634.0,-2.7099999999999898,0.0,2.0,0.0,-2.0,1.0,0.0,-20.0,-24.0,-42.0,-24.0,-3.0
635.0,-3.0,0.0,2.0,0.0,-2.0,1.0,0.0,-20.0,-24.0,-42.0,-24.549999999999944,-3.0
636.0,-3.0,0.0,2.0,0.0,-2.0,1.0,0.0,-20.0,-24.0,-42.0,-25.0,-3.0
637.0,-3.0,0.0,2.0,0.0,-2.0,1.0,0.0,-20.0,-24.0,-42.0,-25.0,-3.0
638.0,-3.0,0.0,2.0,0.0,-2.0,1.0,0.9399999999999846,-20.0,-24.0,-42.0,-25.0,-3.0
639.0,-3.0,0.0,2.0,1.0,-2.0,1.0,1.0,-19.93000000000011,-24.0,-42.0,-25.0,-3.0699999999998897
640.0,-3.0,0.0,2.0,1.0,-2.0,1.0,1.0,-19.0,-24.0,-42.0,-25.0,-4.0
641.0,-3.0,0.0,2.0,1.0,-2.0,1.0,1.0,-19.0,-24.0,-42.0,-25.0,-4.0
642.0,-3.0,-0.45999999999993063,2.0,1.0,-2.0,1.0,1.0,-19.0,-24.0,-42.0,-25.0,-4.0
643.0,-3.2949999999999475,-1.0,2.0,1.0,-2.0,1.0,1.0,-19.0,-24.0,-42.0,-25.29499999999995,-4.0
644.0,-3.859999999999964,-1.0,2.0,1.0,-2.0,1.0,1.0,-19.0,-24.0,-42.0,-25.859999999999964,-4.0
645.0,-4.0,-1.0,2.0,1.0,-2.0,1.0,1.0,-19.0,-24.0,-42.0,-26.0,-4.424999999999981
646.0,-4.0,-1.0,2.0,1.0,-2.0,1.0,1.0,-19.0,-24.0,-42.0,-26.0,-4.9899999999999345
647.0,-3.8900000000001,-2.0,2.0,1.1099999999998997,-2.0,0.0,1.55499999999995,-19.0,-24.0,-42.0,-26.0,-5.0
648.0,-3.0,-2.0,2.0,2.0,-2.0,0.0,2.0,-19.0,-24.0,-42.0,-26.0,-5.0
649.0,-3.0,-2.0,2.0,2.0,-2.0,0.0,2.0,-19.0,-24.0,-42.0,-26.0,-5.0
650.0,-3.0,-2.0,2.0,2.0,-2.0,0.0,2.0,-18.750000000000032,-24.0,-42.0,-26.0,-5.0
651.0,-3.0,-2.0,1.3700000000000951,2.0,-2.0,0.0,2.0,-18.18500000000005,-23.68500000000005,-42.0,-26.0,-5.0
652.0,-3.0,-2.0,1.0,2.0,-2.0,0.0,2.0,-18.0,-23.12000000000003,-42.0,-26.0,-5.7599999999999385
653.0,-3.0,-2.0,1.0,2.0,-2.0,0.0,2.444999999999986,-18.0,-23.0,-42.0,-26.0,-6.0
654.0,-3.0,-2.0099999999999385,1.0,2.0,-2.0,0.0,3.0,-17.980000000000125,-23.0,-41.99000000000006,-26.0,-6.0
655.0,-3.0,-2.574999999999955,1.0,2.0,-2.0,0.0,3.0,-17.0,-22.925000000000043,-41.42500000000005,-26.0,-6.0
656.0,-3.0,-3.0,1.0,2.0,-2.0,0.0,3.0,-17.0,-22.360000000000028,-41.0,-26.0,-6.0
657.0,-3.0,-3.0,1.0,2.0,-2.0,0.0,3.0,-17.0,-22.0,-41.0,-26.0,-6.0
658.0,-3.0,-3.0,1.0,2.0,-2.0,0.0,3.0,-16.460000000000118,-22.0,-41.0,-26.0,-6.0
659.0,-3.0,-3.0,1.0,2.0,-2.0,0.0,3.0,-16.0,-21.330000000000084,-40.330000000000084,-26.0,-6.334999999999957
660.0,-3.0,-3.0,1.0,2.0,-2.0,0.0,3.7999999999999488,-16.0,-21.0,-40.0,-26.0,-6.899999999999975
661.0,-3.0,-3.0,1.0,2.0,-2.0,0.0,4.0,-15.535000000000009,-21.0,-40.0,-26.0,-7.0
662.0,-3.5299999999999434,-3.0,1.0,2.059999999999887,-2.0,0.0,4.0,-15.0,-20.0,-39.470000000000056,-25.0,-7.0
663.0,-4.0,-3.0,1.0,3.0,-2.0,0.0,4.0,-14.81000000000008,-20.0,-39.0,-25.0,-7.0
664.0,-4.0,-3.0,1.0,3.0,-2.0,0.0,4.0,-14.0,-19.680000000000046,-38.840000000000025,-25.0,-7.0
665.0,-4.0,-3.0,0.7750000000000353,3.0,-2.0,0.0,4.0,-14.0,-18.775000000000034,-38.275000000000034,-25.0,-7.0
666.0,-4.0,-3.0,0.21000000000005398,3.0,-2.0,0.0,4.0,-13.420000000000108,-18.210000000000054,-38.0,-25.0,-7.0
667.0,-4.0,-3.0,0.0,3.0,-2.0,0.0,4.0,-13.0,-17.64500000000004,-37.29000000000008,-25.0,-7.0
668.0,-4.0,-3.0,0.0,3.0,-2.0,0.0,4.0,-13.0,-17.08000000000002,-37.0,-24.160000000000043,-7.0
669.0,-4.0,-3.0,0.0,3.0,-2.0,-0.9699999999998676,4.969999999999867,-12.030000000000133,-17.0,-36.515000000000065,-24.0,-7.0
670.0,-4.0,-3.0,0.0,3.0,-2.0,-1.0,5.0,-11.95000000000005,-15.95000000000005,-35.95000000000005,-24.0,-7.0
671.0,-4.0,-3.0,0.0,3.0,-2.0,-1.0,5.0,-11.385000000000035,-15.385000000000035,-35.38500000000003,-24.0,-7.0
672.0,-4.0,-3.0,0.0,3.0,-2.0,-1.0,5.0,-11.0,-14.820000000000018,-35.0,-23.640000000000036,-7.0
673.0,-4.0,-3.0,0.0,3.0,-2.0,-1.0,5.0,-10.755000000000033,-14.255000000000033,-34.51000000000006,-23.0,-7.0
674.0,-4.0,-3.0,0.0,3.0,-2.0,-1.0,5.0,-10.19000000000005,-13.69000000000005,-33.69000000000005,-23.0,-7.0
675.0,-4.0,-3.0,0.0,3.0,-2.0,-1.0,5.0,-10.0,-13.125000000000032,-33.125000000000036,-22.625000000000032,-7.0
676.0,-4.0,-3.0,0.0,3.0,-2.0,-1.0,5.0,-9.120000000000031,-13.0,-32.12000000000003,-22.060000000000016,-7.0
677.0,-4.0,-3.0,0.0,3.0,-2.0,-1.0,5.0,-9.0,-12.0,-31.99500000000006,-21.99500000000006,-7.0
678.0,-4.0,-3.0,0.0,3.0,-2.0,-1.0,5.0,-8.930000000000046,-11.860000000000092,-31.430000000000046,-21.430000000000046,-7.0
679.0,-3.730000000000059,-3.0,0.0,3.0,-2.0,-1.0,5.0,-8.36500000000003,-11.0,-30.73000000000006,-21.0,-7.0
680.0,-3.0,-3.0,0.0,3.0,-2.0,-1.0,5.0,-8.0,-11.0,-30.0,-21.0,-7.0
681.0,-3.0,-3.0,0.0,3.0,-2.0,-1.0,5.0,-8.0,-10.470000000000121,-29.47000000000012,-20.47000000000012,-7.0
682.0,-3.0,-3.0,0.0,3.0,-2.0,-1.0,5.0,-8.0,-10.0,-28.670000000000044,-20.0,-6.6700000000000434
683.0,-3.0,-2.210000000000054,0.0,3.0,-2.0,-1.0,5.0,-7.210000000000054,-10.0,-28.105000000000025,-20.0,-6.105000000000027
684.0,-3.0,-2.0,0.0,3.0,-2.0,-1.0,5.0,-7.0,-9.08000000000002,-27.54000000000001,-19.08000000000002,-6.0
685.0,-3.0,-2.0,0.0,3.0,-2.0,-1.0,5.0,-7.0,-8.950000000000115,-26.950000000000117,-18.97500000000006,-6.0
686.0,-2.910000000000041,-2.0,0.0,3.0,-2.0,-1.0,4.820000000000082,-6.820000000000082,-8.0,-25.910000000000043,-18.410000000000043,-6.0
687.0,-2.3450000000000246,-2.0,0.0,3.0,-1.6900000000000488,-1.0,4.0,-6.0,-8.0,-25.345000000000024,-18.0,-6.0
688.0,-2.0,-2.0,0.0,3.0,-1.0,-1.0,4.0,-6.0,-7.5600000000000716,-24.560000000000073,-17.780000000000037,-6.0
689.0,-2.0,-2.0,0.0,3.0,-1.0,-1.0,4.0,-6.0,-7.0,-23.715000000000057,-17.215000000000057,-6.0
690.0,-2.0,-2.0,0.0,2.6500000000000385,-1.0,-1.0,4.0,-5.6500000000000385,-6.6500000000000385,-23.150000000000038,-16.650000000000038,-6.0
691.0,-2.0,-2.0,0.0,2.0850000000000217,-1.0,-1.0,4.0,-5.085000000000022,-6.085000000000022,-22.170000000000044,-16.085000000000022,-5.1700000000000434
692.0,-2.0,-1.5200000000000669,0.0,2.0,-1.0,-1.0,4.0,-5.0,-6.0,-22.0,-16.0,-5.0
693.0,-1.9100000000001054,-1.0,0.0,2.0,-1.0,-1.0,3.9550000000000525,-5.0,-5.4550000000000525,-20.95500000000005,-15.455000000000053,-5.0
694.0,-1.0,-1.0,0.0,2.0,-1.0,-0.890000000000036,3.390000000000036,-4.780000000000072,-5.0,-20.390000000000036,-14.890000000000036,-5.0
695.0,-1.0,-1.0,0.0,2.0,-1.0,-0.3250000000000193,3.0,-4.0,-5.0,-19.650000000000038,-14.325000000000019,-5.0
696.0,-1.0,-1.0,0.0,2.0,-1.0,0.0,3.0,-4.0,-4.520000000000067,-18.760000000000034,-14.0,-4.7600000000000335
697.0,-1.0,-0.39000000000010016,0.0,2.0,-1.0,0.0,3.0,-4.0,-4.0,-18.19500000000005,-13.3900000000001,-4.19500000000005
698.0,-1.0,0.0,0.0,2.0,-1.0,0.0,3.0,-3.260000000000067,-4.0,-17.260000000000066,-13.0,-4.0
699.0,-1.0,0.0,0.0,2.0,-1.0,0.0,3.0,-3.0,-3.1300000000000336,-17.0,-12.130000000000033,-4.0
700.0,-1.0,0.0,0.0,1.5000000000000642,-1.0,0.0,3.0,-3.0,-3.0,-16.000000000000128,-12.0,-4.0
701.0,-1.0,0.0,0.0,1.0,-1.0,0.0,3.0,-3.0,-3.0,-15.435000000000047,-11.435000000000047,-3.9350000000000476
702.0,-1.0,0.0,0.0,1.0,-1.0,0.0,3.0,-2.7400000000000615,-3.0,-14.740000000000062,-11.0,-3.3700000000000307
703.0,-1.0,0.0,0.0,1.0,-1.0,0.0,2.6100000000000785,-2.0,-2.8050000000000392,-14.0,-10.610000000000078,-3.0
704.0,-1.0,0.0,0.0,1.0,-1.0,0.0,2.0,-2.0,-2.2400000000000615,-13.480000000000123,-10.0,-3.0
705.0,-1.0,0.0,0.0,1.0,-1.0,0.0,2.0,-2.0,-2.0,-12.675000000000045,-9.35000000000009,-3.0
706.0,-1.0,0.0,0.0,1.0,-1.0,0.0,2.0,-2.0,-2.0,-12.110000000000028,-9.0,-3.0
707.0,-1.0,0.0,0.0,1.0,-1.0,0.0,2.0,-2.0,-2.0,-12.0,-9.0,-3.0
708.0,-1.0,0.0,0.0,1.0,-1.0,0.0,2.0,-1.980000000000059,-2.0,-10.980000000000059,-8.0,-2.480000000000059
709.0,-1.0,0.0,0.0,1.0,-1.0,0.0,2.0,-1.4150000000000424,-2.0,-10.415000000000042,-7.915000000000043,-2.0
710.0,-1.0,0.0,0.0,1.0,-1.0,0.0,2.0,-1.0,-2.0,-10.0,-7.350000000000025,-2.0
711.0,-1.0,0.0,0.0,1.0,-1.0,0.0,1.5700000000000731,-1.0,-2.0,-9.570000000000073,-7.0,-2.0
712.0,-1.0,0.0,0.0,1.0,-1.0,0.0,1.0,-1.0,-1.7200000000000566,-9.0,-6.440000000000113,-2.0
713.0,-1.0,0.0,0.0,1.0,-1.0,0.0,1.0,-1.0,-1.1550000000000398,-8.31000000000008,-6.0,-1.6550000000000398
714.0,-1.0,0.0,0.0,1.0,-1.0,0.0,1.0,-1.0,-1.0,-8.0,-5.590000000000023,-1.0900000000000232
715.0,-1.0,0.0,0.0,1.0,-1.0,0.0,1.0,-1.0,-1.0,-7.050000000000135,-5.025000000000068,-1.0
716.0,-1.0,0.0,0.0,1.0,-1.0,0.0,1.0,-1.0,-1.0,-6.960000000000054,-4.960000000000054,-1.0
717.0,-0.7900000000000745,0.0,0.0,1.0,-0.7900000000000745,0.0,1.0,-1.0,-1.0,-6.395000000000037,-4.395000000000037,-1.0
718.0,0.0,0.0,0.0,1.0,0.0,0.0,1.0,-1.0,-1.0,-6.0,-4.0,-1.0
719.0,0.0,0.0,0.0,0.5300000000000681,0.0,0.0,1.0,-1.0,-1.0,-5.530000000000068,-4.0,-1.0
720.0,0.0,0.0,0.0,0.0,0.0,0.0,1.0,-1.0,-1.0,-5.0,-3.4000000000001025,-0.4000000000001027
721.0,0.0,0.0,0.0,0.0,0.0,0.0,1.0,-1.0,-1.0,-4.635000000000034,-3.0,0.0
722.0,0.0,0.0,0.0,0.0,0.0,0.0,1.0,-1.0,-1.0,-4.070000000000018,-3.0,0.0
723.0,0.0,0.0,0.0,0.0,0.0,0.0,1.0,-1.0,-1.0,-4.0,-2.5050000000000647,0.0
724.0,0.0,0.0,0.0,0.0,0.0,0.0,0.8800000000000976,-0.4400000000000488,-1.0,-4.0,-2.0,0.0
725.0,0.0,0.0,0.0,0.0,0.0,0.0,0.0,0.0,-1.0,-4.0,-1.8750000000000322,0.0
726.0,0.0,0.0,0.0,0.0,0.0,0.0,0.0,0.0,-1.0,-3.6200000000000796,-1.3100000000000398,0.0
727.0,0.0,0.0,0.0,0.0,0.0,0.0,0.0,0.0,-1.0,-3.0,-1.0,0.0
728.0,0.0,0.0,0.0,0.0,0.0,0.0,0.0,0.0,-1.0,-3.0,-1.0,0.0
729.0,0.0,0.0,0.0,0.0,0.0,0.0,0.0,0.0,-1.0,-2.6150000000000295,-1.0,0.0
730.0,0.0,0.0,0.0,0.0,0.0,0.0,0.0,0.0,-1.0,-2.0500000000000127,-1.0,0.0
731.0,0.0,0.0,0.0,0.0,0.0,0.0,0.0,0.0,-1.0,-2.0,-1.0,0.0
732.0,0.0,0.0,0.0,0.0,0.0,0.0,0.0,0.0,-1.0,-1.9200000000000437,-1.0,0.0
733.0,0.0,0.0,0.0,0.0,0.0,0.0,0.0,0.0,-0.7100000000000539,-1.355000000000027,-0.855000000000027,0.0
734.0,0.0,0.0,0.0,0.0,0.0,0.0,0.0,0.0,0.0,-1.0,-0.29000000000003723,0.0
735.0,0.0,0.0,0.0,0.0,0.0,0.0,0.0,0.0,0.0,-1.0,0.0,0.0
736.0,0.0,0.0,0.0,0.0,0.0,0.0,0.0,0.0,0.0,-1.0,0.0,0.0
737.0,0.0,0.0,0.0,0.0,0.0,0.0,0.0,0.0,0.0,-0.1900000000000488,0.0,0.0
738.0,0.0,0.0,0.0,0.0,0.0,0.0,0.0,0.0,0.0,0.0,0.0,0.0
739.0,0.0,0.0,0.0,0.0,0.0,0.0,0.0,0.0,0.0,0.0,1.0,0.0
740.0,0.0,0.0,0.0,0.0,0.0,0.0,0.0,0.0,0.0,0.0,1.0,0.0
741.0,0.0,0.0,0.0,0.0,0.0,0.0,0.0,0.0,0.0,0.0,1.0,0.0
742.0,0.0,0.0,0.0,0.0,0.0,0.0,0.0,0.0,0.0,0.45999999999993063,1.0,0.0
743.0,0.0,0.0,0.0,0.0,0.0,0.0,0.0,0.0,0.0,1.0,1.0,0.0
744.0,0.0,0.0,0.0,0.0,0.0,0.0,0.0,0.0,0.0,1.0,1.359999999999964,0.0
745.0,0.0,0.8499999999999615,0.0,0.0,0.0,0.0,0.0,0.8499999999999615,0.0,1.0,1.9249999999999807,0.4249999999999807
746.0,0.0,1.0,0.0,0.0,0.0,0.0,0.0,1.0,0.0,1.0,2.0,0.9899999999999345
747.0,0.0,1.0,0.0,0.0,0.0,0.0,0.0,1.0,0.0,1.05499999999995,2.0,1.0
748.0,0.0,1.0,0.0,0.0,0.0,0.0,0.0,1.0,0.0,1.6199999999999666,2.0,1.0
749.0,0.0,1.0,0.0,0.0,0.0,0.0,0.0,1.0,0.0,2.0,2.0,1.0
750.0,0.0,1.0,0.0,0.0,0.0,0.0,0.0,1.0,0.24999999999993577,2.0,2.0,1.0
751.0,0.0,1.0,0.0,0.0,0.0,0.0,0.0,1.0,0.8149999999999524,2.0,2.0,1.0
752.0,0.0,0.6200000000000307,0.0,0.0,0.0,0.0,0.0,1.0,1.0,2.0,2.7599999999999385,1.0
753.0,0.0,0.05500000000001415,0.0,0.0,0.0,0.0,0.0,1.0,1.0,2.0,3.0,1.0
754.0,0.0,0.0,0.0,0.0,0.0,0.0,0.0,1.0,1.0,2.0,3.0,1.0
755.0,0.0,0.0,0.0,0.0,0.0,0.0,0.0,1.0,1.0,2.14999999999991,3.0,1.0
756.0,0.0,0.0,0.0,0.0,0.0,0.0,0.0,1.0,1.0,3.0,3.0,1.0
757.0,0.4099999999999242,0.0,0.0,0.0,0.0,0.0,0.0,1.0,1.0,3.0,3.0,1.0
758.0,1.0,0.0,0.0,0.0,0.0,0.0,0.0,1.0,1.0,3.0,3.0,1.0
759.0,1.0,0.0,0.0,0.0,0.0,0.0,0.0,1.0,1.0,3.0,3.0,1.0
760.0,1.0,0.0,0.0,0.0,0.0,0.0,0.0,1.0,1.0,3.0,3.0,1.0
761.0,1.0,0.0,0.0,0.0,0.0,0.0,0.0,1.0,1.0,3.0,3.0,1.0
762.0,1.0,0.0,0.0,0.0,0.0,0.0,0.0,1.0,1.0,3.0,3.0,1.0
763.0,1.0,0.0,0.0,0.0,0.0,0.0,-0.18999999999992034,1.0,1.0,3.0,3.0,1.0
764.0,1.0,0.0,0.0,0.0,0.0,0.0,-1.0,1.0,1.0,3.0,3.0,1.0
765.0,1.0,0.0,0.0,0.0,0.0,0.0,-1.0,1.0,1.0,3.0,3.0,1.0
766.0,1.0,0.0,0.0,0.0,0.0,0.0,-1.0,1.0,1.0,3.0,3.0,1.0
767.0,1.0,0.0,0.0,0.0,0.0,0.0,-1.0,1.0,1.0,3.0,3.0,1.0
768.0,1.0,0.0,0.0,0.0,0.0,0.0,-1.0,1.0,1.0,3.0,3.0,1.0
769.0,1.0,0.0,0.0,0.0,0.0,0.0,-1.0,1.0,1.0,3.0,3.0,1.0
770.0,1.0,0.5,0.0,0.0,0.0,0.0,-1.0,1.0,1.0,3.0,3.0,1.0
771.0,1.0,0.5,0.0,-0.11499999999996531,0.0,0.0,-1.0,1.0,1.0,3.0,3.0,1.0
772.0,1.0,0.6799999999999589,0.0,-0.6799999999999589,0.0,0.0,-1.0,1.0,1.0,3.0,3.0,1.0
773.0,1.0,1.0,0.0,-1.0,0.0,0.0,-1.0,1.0,1.0,3.0,3.0,1.0
774.0,1.0,1.0,0.0,-1.0,0.0,0.0,-1.0,1.0,1.0,3.309999999999951,3.0,1.0
775.0,1.0,1.0,0.0,-1.0,0.0,0.0,-1.0,1.0,1.0,3.874999999999968,3.374999999999968,1.0
776.0,1.4399999999999846,1.0,0.0,-1.0,0.0,0.0,-1.0,1.0,1.0,4.0,3.9399999999999844,1.0
777.0,1.0,1.0,0.0,-1.0,0.0,0.0,-1.0,1.0,1.0,4.0,4.0,1.0
778.0,1.0,1.0,0.0,-1.0,0.0,0.0,-1.0,1.0,1.0,4.0,4.0,1.0
779.0,1.0,1.0,0.0,-1.0,0.0,0.0,-1.0,1.0,1.0,4.0,4.0,1.1349999999999705
780.0,1.0,1.0,0.0,-1.0,0.0,0.0,-1.0,1.0,1.0,4.0,4.0,1.6999999999999615
781.0,1.0,1.0,0.0,-1.0,0.0,0.0,-1.0,1.0,1.0,4.0,4.0,2.0
782.0,1.0,1.0,0.0,-1.0,0.0,0.0,-1.0,1.0,1.0,4.0,4.0,2.0
783.0,1.0,1.0,0.0,-1.0,0.0,0.0,-1.0,1.0,1.0,4.0,4.0,2.0
784.0,1.0,1.0,0.0,-1.0,0.0,0.0,-1.0,1.0,1.0,4.0,4.0,2.0
785.0,1.0,1.0,0.0,-1.0,0.0,0.0,-1.0,1.0,1.0,4.0,4.0,2.0
786.0,1.0,1.0,0.0,-1.0,0.0,0.0,-1.0,1.0,1.0,4.0,4.0,2.0
787.0,1.0,1.0,0.0,-1.0,0.0,0.0,-1.0,1.0,1.0,4.0,4.0,1.8450000000000244
788.0,1.0,1.0,0.0,-1.0,0.0,0.0,-1.0,1.0,1.0,4.0,4.0,1.280000000000036
789.0,1.0,1.0,0.0,-1.0,0.0,0.0,-1.0,1.0,1.0,4.0,4.0,1.0
790.0,1.0,1.0,0.0,-1.0,0.0,0.0,-1.3499999999999615,1.0,1.0,4.0,4.0,1.0
791.0,1.0,1.0,0.0,-1.0,0.0,0.0,-1.9149999999999783,1.0,1.0,4.0,4.0,1.0
792.0,1.0,1.0,0.0,-1.0,0.0,0.0,-2.0,1.0,1.0,4.0,4.0,1.0
793.0,1.0,1.0,0.0,-1.0,0.0,0.0,-2.0,1.0,1.0,4.0,4.0,1.0
794.0,1.0,1.0,0.0,-1.0,0.0,0.0,-2.0,1.0,1.0,4.0,4.0,1.0
795.0,1.0,1.0,0.0,-1.0,0.0,0.0,-2.0,1.0,1.0,4.0,4.0,1.0
796.0,1.0,1.0,0.0,-1.0,0.0,0.0,-2.0,1.0,1.0,4.0,4.0,1.0
797.0,1.0,1.0,0.0,-1.0,0.0,0.0,-1.69500000000005,1.0,1.0,4.0,4.0,1.0
798.0,1.0,1.0,0.0,-1.0,0.0,0.0,-1.1300000000000334,1.0,1.0,4.0,4.0,1.0
799.0,1.0,1.0,0.0,-1.0,0.0,0.0,-1.0,1.0,1.0,4.0,4.0,1.0
800.0,1.0,1.0,0.0,-1.0,0.0,0.0,-1.0,1.0,1.9999999999998717,4.0,4.0,1.0
801.0,1.0,1.0,0.0,-1.0,0.0,0.0,-1.0,1.0,2.0,4.0,4.0,1.1299999999999049
802.0,1.0,1.0,0.0,-1.0,0.0,0.0,-1.0,1.0,2.0,4.0,4.0,2.0
803.0,1.0,1.0,0.0,-1.0,0.0,0.0,-1.0,1.0,2.0,4.0,4.0,2.0
804.0,1.0,1.0,0.0,-1.0,0.0,0.0,-1.0,1.0,2.0,4.0,4.0,2.0
805.0,1.0,1.0,0.0,-1.0,0.0,0.0,-1.0,1.0,2.0,4.0,4.0,2.0
806.0,1.0,1.0,0.0,-1.0,0.0,0.0,-1.0,1.0,2.0,4.0,4.0,2.0
807.0,1.0,1.0,0.0,-1.0,0.0,0.0,-1.0,1.0,1.0900000000001402,4.0,4.0,2.0
808.0,1.0,1.0,0.0,-1.0,0.0,0.0,-1.0,1.0,1.0,4.0,4.0,2.0
809.0,1.0,1.0,0.0,-1.0,0.0,0.0,-1.0,1.0,1.0,4.0,4.0,2.0
810.0,1.0,1.0,0.0,-1.0,0.0,0.0,-1.0,1.0,1.0,4.0,4.0,2.0
811.0,1.0,1.0,0.0,-1.0,0.0,0.0,-1.0,1.0,1.0,4.0,4.0,2.0
812.0,1.0,1.0,0.0,-1.0,0.0,0.0,-1.0,1.0,1.0,4.0,4.0,2.0
813.0,1.0,1.0,0.0,-1.0,0.0,0.0,-1.0,1.0,1.0,4.0,4.0,2.0
814.0,1.0,1.0,0.0,-1.0,0.0,0.0,-1.0,1.0,1.0,4.0,4.0,2.0
815.0,1.0,1.0,0.0,-1.0,0.0,0.0,-1.0,1.0,1.0,4.0,4.0,2.0
816.0,1.0,1.0,0.0,-1.0,0.0,0.0,-1.0,1.0,1.0,4.0,3.0,1.0
817.0,1.0,1.0,0.0,-1.0,0.0,0.0,-1.0,1.0,1.0,4.0,3.0,1.0
818.0,1.0,1.0,0.0,-1.0,0.0,0.0,-1.0,1.0,1.1699999999999575,4.0,3.0,1.0
819.0,1.0,1.0,0.0,-1.0,0.0,0.0,-1.0,1.0,1.734999999999932,4.0,3.0,1.0
820.0,1.0,1.0,0.0,-1.0,0.0,0.0,-1.0,1.0,2.0,4.0,3.0,1.0
821.0,1.0,1.0,0.0,-1.0,0.0,0.0,-1.0,1.0,2.0,4.0,3.0,1.0
822.0,1.0,1.0,0.0,-1.0,0.0,0.0,-1.0,1.0,2.0,4.0,3.0,1.0
823.0,1.0,1.0,0.0,-1.0,0.0,0.0,-1.0,1.0,2.0,4.0,3.0,1.0
824.0,1.0,1.0,0.0,-1.0,0.0,0.0,-1.0,1.0,1.8800000000000976,4.0,3.0,1.0
825.0,1.0,1.0,0.0,-1.0,0.0,0.0,-1.0,1.0,1.0,4.0,3.0,1.0
826.0,1.0,1.0,0.0,-1.0,0.0,0.0,-1.0,1.0,1.0,4.0,3.0,1.0
827.0,1.0,1.0,0.0,-1.0,0.0,0.0,-1.0,1.0,1.0,4.0,3.0,1.0
828.0,1.0,1.0,0.0,-1.0,0.0,0.0,-1.0,1.0,1.0,4.0,3.0,1.0
829.0,1.0,1.0,0.0,-1.0,0.0,0.0,-1.0,1.0,1.0,4.0,3.0,1.0
830.0,1.0,1.0,0.0,-1.0,0.0,0.0,-1.0,1.0,1.4499999999999293,4.0,3.0,1.0
831.0,1.0,1.0,0.0,-1.0,0.0,0.0,-1.0,1.0299999999998792,2.0,4.0,3.0,1.0
832.0,1.0,1.0,0.0,-1.0,0.0,0.0,-1.0,2.0,2.0,4.0,3.0,1.0
833.0,1.0,1.0,0.0,-1.0,0.0,0.0,-1.0,2.0,2.0,4.0,3.0,1.0
834.0,1.0,1.0,0.0,-1.0,0.0,0.0,-1.0,2.0,2.0,4.0,3.0,1.0
835.0,1.0,1.0,0.0,-1.0,0.0,0.0,-1.0,2.0,2.0,4.0,3.0,1.0
836.0,1.0,1.0,0.0,-1.0,0.0,0.0,-1.0,2.0,2.0,4.0,3.0,1.0
837.0,1.0,1.0,0.0,-1.0,0.0,0.0,-1.0,2.0,2.0,4.0,3.0,1.0
838.0,0.06000000000013617,1.0,0.0,-1.0,0.0,0.0,-1.0,2.0,2.0,4.0,3.0,1.0
839.0,0.0,1.0,0.0,-1.0,0.0,0.0,-1.0,2.0,2.0,4.0,3.0,1.0
840.0,0.0,1.0,0.0,-1.0,0.0,0.0,-1.0,2.0,1.9000000000000385,4.0,3.0,1.0
841.0,0.0,1.0,0.0,-1.0,0.0,0.0,-0.835000000000043,2.0,1.335000000000043,4.0,3.0,1.0
842.0,0.0,1.0,0.0,-1.0,0.0,0.0,-0.2700000000000694,2.0,1.0,4.0,3.0,1.0
843.0,0.0,1.0,0.0,-1.0,0.0,0.0,0.0,2.0,1.0,4.0,3.0,1.0
844.0,0.0,1.0,0.0,-1.0,0.0,0.0,0.0,2.0,1.0,4.0,3.0,1.0
845.0,0.0,1.0,0.0,-1.0,0.0,0.0,0.0,2.0,1.0,4.0,3.0,1.0
846.0,0.0,1.0,0.0,-1.0,0.0,0.0,0.0,2.0,1.0,4.0,3.0,1.0
847.0,0.0,1.0,0.0,-1.0,0.0,0.0,0.0,2.0,1.0,4.0,3.0,0.8900000000001002
848.0,0.0,1.0,0.0,-1.0,0.0,0.0,0.0,2.0,1.0,4.0,3.0,0.0
849.0,0.0,1.0,0.0,-1.0,0.0,0.0,0.0,2.0,1.0,4.0,3.0,0.0
850.0,0.0,1.0,0.0,-1.0,0.0,0.0,0.0,2.0,1.0,4.0,3.0,0.0
851.0,0.0,1.0,0.0,-1.0,0.0,0.0,0.0,2.0,1.0,4.0,3.0,0.0
852.0,0.0,1.0,0.0,-0.2400000000000616,0.0,0.0,0.0,2.0,1.0,4.0,3.0,0.0
853.0,0.0,1.0,0.0,-0.8899999999998573,0.0,0.0,0.0,1.5550000000000712,1.0,4.0,3.0,0.0
854.0,0.0,1.0,0.0,-1.0,0.0,0.0,0.0,1.0,1.0,4.0,3.0,0.0
855.0,0.07499999999995503,1.0,0.0,-1.0,0.0,0.0,0.0,1.0,1.0,3.925000000000045,3.0,0.0
856.0,0.6399999999999717,1.0,0.0,-1.0,0.0,0.0,0.0,1.0,1.0,3.3600000000000283,3.0,0.0
857.0,1.0,1.0,0.0,-1.0,0.0,0.0,0.0,1.0,1.0,3.0,3.0,0.0
858.0,0.4600000000001182,1.0,0.0,-1.0,0.0,0.0,0.0,1.0,1.0,3.0,3.0,0.0
859.0,0.0,1.0,0.0,-1.0,0.0,0.0,0.0,1.0,1.0,3.0,3.0,0.0
860.0,0.0,1.0,0.0,-1.0,0.0,0.0,0.0,1.0,1.0,3.0,3.0,0.0
861.0,0.0,1.0,0.0,-0.07000000000013751,0.0,0.0,0.0,1.0,1.0,3.0,2.5350000000000685,0.0
862.0,0.0,1.0,0.0,0.0,0.0,0.0,0.0,1.0,1.0,3.0,2.0,0.0
863.0,0.0,1.0,0.0,0.0,0.0,0.0,0.0,1.0,1.0,3.0,2.0,0.0
864.0,0.0,1.0,0.0,0.0,0.0,0.0,0.0,1.0,1.0,3.0,2.0,0.0
865.0,0.0,1.0,0.0,0.0,0.0,0.0,0.0,1.0,1.0,3.0,2.0,0.0
866.0,0.0,1.0,0.0,0.0,0.0,0.0,0.0,1.0,1.0,3.0,2.0,0.0
867.0,0.0,1.0,0.0,0.0,0.0,0.0,0.0,1.0,1.0,3.0,2.0,0.0
868.0,0.0,1.0,0.0,0.0,0.0,0.0,0.0,1.0,1.0,3.0,2.0,0.0
869.0,0.0,1.0,0.0,0.0,0.0,0.0,0.0,1.0,1.0,3.0,2.0,0.0
870.0,0.0,1.0,0.0,0.0,0.0,0.0,0.0,1.0,1.0,3.0,2.0,0.0
871.0,0.0,1.0,0.0,0.0,0.0,0.0,0.0,1.0,1.0,3.0,2.0,0.0
872.0,0.0,1.0,0.0,0.0,0.0,0.0,0.0,1.0,1.0,3.0,2.0,0.0
873.0,0.0,1.0,0.0,0.0,0.0,0.0,0.0,1.0,1.0,3.0,2.0,0.0
874.0,0.0,1.0,0.0,0.0,0.0,0.0,0.0,1.0,1.0,3.0,2.0,0.0
875.0,0.0,1.0,0.0,0.0,0.0,0.0,0.0,1.0,1.0,3.0,2.0,0.0
876.0,0.0,1.0,0.0,0.0,0.0,0.0,0.0,1.0,1.0,3.0,2.0,0.0
877.0,0.0,0.9900000000001259,0.0,0.0,0.0,0.0,0.0,1.0,1.0,3.0,2.0,0.0
878.0,0.0,0.0,0.0,0.0,0.0,0.0,0.0,1.0,1.0,3.0,2.0,0.0
879.0,0.0,0.0,0.0,0.0,0.0,0.0,0.0,1.0,1.0,3.0,2.0,0.0
880.0,0.0,0.0,0.0,0.0,0.0,0.0,0.0,1.0,1.0,3.0,2.0,0.0
881.0,0.0,0.0,0.0,0.0,0.0,0.0,0.0,1.0,1.0,2.7350000000000603,2.0,0.0
882.0,0.0,0.0,0.0,0.0,0.0,0.0,0.0,1.0,1.0,2.1700000000000434,2.0,0.0
883.0,0.0,0.0,0.0,0.0,0.0,0.0,0.0,1.0,1.0,2.0,2.0,0.0
884.0,0.0,0.0,0.0,0.0,0.0,0.0,0.0,1.0,1.0,2.0,2.0,0.0
885.0,0.0,0.0,0.0,0.0,0.0,0.0,0.0,1.0,0.0,2.0,2.0,0.0
886.0,0.0,0.0,0.0,0.0,0.0,0.0,0.0,1.0,0.0,2.0,2.0,0.0
887.0,0.0,0.0,0.0,0.0,0.0,0.0,0.0,1.0,0.0,2.0,2.0,0.0
888.0,0.0,0.0,0.0,0.0,0.0,0.0,0.0,1.0,0.0,2.0,2.0,0.0
889.0,0.0,0.0,0.0,0.0,0.0,0.0,0.0,1.0,0.0,2.0,2.0,0.0
890.0,0.0,0.0,0.0,0.0,0.0,0.0,0.0,1.0,0.0,2.0,2.0,0.0
891.0,0.0,0.0,0.0,0.0,0.0,0.0,0.0,1.0,0.0,2.0,2.0,0.0
892.0,0.0,0.0,0.0,0.0,0.0,0.0,0.0,1.0,0.0,2.0,2.0,0.0
893.0,0.0,0.0,0.0,0.0,0.0,0.0,0.0,1.0,0.0,2.0,2.0,0.0
894.0,0.0,0.0,0.0,0.0,0.0,0.0,0.0,1.0,0.0,2.0,2.0,0.0
895.0,0.0,0.0,0.0,0.0,0.0,0.0,0.0,1.0,0.0,2.0,2.0,0.0
896.0,0.0,0.0,0.0,0.0,0.0,0.0,0.0,1.0,0.0,2.0,2.0,0.0
897.0,0.0,0.0,0.0,0.0,0.0,0.0,0.0,1.0,0.0,2.0,2.0,0.0
898.0,0.0,0.0,0.0,0.0,0.0,0.0,0.0,1.0,0.0,2.0,2.0,0.0
899.0,0.0,0.0,0.0,0.0,0.0,0.0,0.0,1.0,0.0,2.0,2.0,0.0
900.0,0.0,0.0,0.0,0.0,0.0,0.0,0.0,1.0,0.0,2.0,2.0,0.0
901.0,0.0,0.0,0.0,0.0,0.0,0.0,0.0,1.0,0.0,2.0,2.0,0.0
902.0,0.0,0.0,0.0,0.0,0.0,0.0,0.0,1.0,0.0,2.0,2.0,0.0
903.0,0.0,0.0,0.0,0.0,0.0,0.0,0.0,1.0,0.0,2.0,2.0,0.0
904.0,0.0,0.0,0.0,0.0,0.0,0.0,0.0,1.0,0.0,2.0,2.0,0.0
905.0,0.0,0.0,0.0,0.0,0.0,0.0,0.0,0.3500000000000899,0.0,2.0,2.0,0.0
906.0,0.0,0.0,0.0,0.0,0.0,0.0,0.0,0.0,0.0,2.0,2.0,0.0
907.0,0.0,0.0,0.0,0.0,0.0,0.0,0.0,0.0,0.0,2.0,2.0,0.0
908.0,0.0,0.0,0.0,0.0,0.0,0.0,0.0,0.0,0.0,2.0,2.0,0.0
909.0,0.0,0.0,0.0,0.0,0.0,0.0,0.0,0.0,0.0,2.0,2.0,0.0
910.0,0.0,0.0,0.0,0.0,0.0,0.0,0.0,0.0,0.0,2.0,2.0,0.0
911.0,0.0,0.0,0.0,0.0,0.0,0.0,0.0,0.0,0.0,2.0,2.0,0.0
912.0,0.0,0.0,0.0,0.0,0.0,0.0,0.0,0.0,0.0,2.0,2.0,0.0
913.0,0.0,0.0,0.0,0.0,0.0,0.0,0.0,0.0,0.0,2.0,2.0,0.0
914.0,0.0,0.0,0.0,0.0,0.0,0.0,0.0,0.0,0.0,2.0,2.0,0.0
915.0,0.0,0.0,0.0,0.0,0.0,0.0,0.0,0.0,0.0,2.0,2.0,0.0
916.0,0.0,0.0,0.0,0.0,0.0,0.0,0.0,0.0,0.0,2.0,2.0,0.0
917.0,0.0,0.0,0.0,0.0,0.0,0.0,0.0,0.0,0.0,2.0,2.0,0.0
918.0,0.0,0.0,0.0,0.0,0.0,0.0,0.0,0.0,0.0,2.0,2.0,0.0
919.0,0.0,0.0,0.0,0.0,0.0,0.0,0.0,0.0,0.0,2.0,2.0,0.0
920.0,0.0,0.0,0.0,0.0,0.0,0.0,0.0,0.0,0.0,2.0,2.0,0.0
921.0,0.0,0.0,0.0,0.0,0.0,0.0,0.0,0.0,0.0,2.0,2.0,0.0
922.0,0.0,0.0,0.0,0.0,0.0,0.0,0.0,0.0,0.0,2.0,2.0,0.0
923.0,0.0,0.0,0.0,0.0,0.0,0.0,0.0,0.0,0.0,2.0,2.0,0.0
924.0,0.0,0.0,0.0,0.0,0.0,0.0,0.0,0.0,0.0,2.0,2.0,0.0
925.0,0.0,0.0,0.0,0.0,0.0,0.0,0.0,0.0,0.0,2.0,2.0,0.0
926.0,0.0,0.0,0.0,0.0,0.0,0.0,0.0,0.0,0.0,2.0,2.0,0.0
927.0,0.0,0.0,0.0,0.0,0.0,0.0,0.0,0.0,0.0,2.0,2.0,0.0
928.0,0.0,0.0,0.0,0.0,0.0,0.0,0.0,0.0,0.0,2.0,2.0,0.0
929.0,0.0,0.0,0.0,0.0,0.0,0.0,0.0,0.0,0.0,2.0,2.0,0.0
930.0,0.0,0.0,0.0,0.0,0.0,0.0,0.0,0.0,0.0,2.0,2.0,0.0
931.0,0.0,0.0,0.0,0.0,0.0,0.0,0.0,0.0,0.0,2.0,2.0,0.0
932.0,0.0,0.0,0.0,0.0,0.0,0.0,0.0,0.0,0.0,2.0,2.0,0.0
933.0,0.0,0.0,0.0,0.0,0.0,0.0,0.0,0.0,0.0,2.0,2.0,0.0
934.0,0.0,0.0,0.0,0.0,0.0,0.0,0.0,0.0,0.0,2.0,2.0,0.0
935.0,0.0,0.0,0.0,0.0,0.0,0.0,0.0,0.0,0.0,2.0,2.0,0.0
936.0,0.0,0.0,0.0,0.0,0.0,0.0,0.0,0.0,0.0,2.0,2.0,0.0
937.0,0.0,0.0,0.0,0.0,0.0,0.0,0.0,0.0,0.0,2.0,2.0,0.0
938.0,0.0,0.0,0.0,0.0,0.0,0.0,0.0,0.0,0.0,2.0,2.0,0.0
939.0,0.0,0.0,0.0,0.0,0.0,0.0,0.0,0.0,0.0,2.0,2.0,0.0
940.0,0.0,0.0,0.0,0.0,0.0,0.0,0.0,0.0,0.0,2.0,2.0,0.0
941.0,0.0,0.0,0.0,0.0,0.0,0.0,0.0,0.0,0.0,2.0,2.0,0.0
942.0,0.0,0.0,0.0,0.0,0.0,0.0,0.0,0.0,0.0,1.5400000000001388,2.0,0.0
943.0,0.0,0.0,0.0,0.0,0.0,0.0,0.0,0.0,0.0,1.0,2.0,0.0
944.0,0.0,0.0,0.0,0.0,0.0,0.0,0.0,0.0,0.0,1.0,2.0,0.0
945.0,0.0,0.0,0.0,0.0,0.0,0.0,0.0,0.0,0.0,1.0,2.0,0.0
946.0,0.0,0.0,0.0,0.0,0.0,0.0,0.0,0.0,0.0,1.0,2.0,0.0
947.0,0.0,0.0,0.0,0.0,0.0,0.0,0.0,0.0,0.0,1.0,2.0,0.0
948.0,0.0,0.0,0.0,0.0,0.0,0.0,0.0,0.0,0.0,1.0,2.0,0.0
949.0,0.0,0.0,0.0,0.0,0.0,0.0,0.0,0.0,0.0,1.0,2.0,0.0
950.0,0.0,0.0,0.0,0.0,0.0,0.0,0.0,0.0,0.0,1.0,2.0,0.0
951.0,0.0,0.0,0.0,0.0,0.0,0.0,0.0,0.0,0.0,1.0,2.0,0.0
952.0,0.0,0.0,0.0,0.0,0.0,0.0,0.0,0.0,0.0,1.0,2.0,0.0
953.0,0.0,0.0,0.0,0.0,0.0,0.0,0.0,0.0,0.0,1.0,2.0,0.0
954.0,0.0,0.0,0.0,0.0,0.0,0.0,0.0,0.0,0.0,1.0,2.0,0.0
955.0,0.0,0.0,0.0,0.0,0.0,0.0,0.0,0.0,0.0,1.0,2.0,0.0
956.0,0.0,0.0,0.0,0.0,0.0,0.0,0.0,0.0,0.0,1.0,2.0,0.0
957.0,0.0,0.0,0.0,0.0,0.0,0.0,0.0,0.0,0.0,1.0,2.0,0.0
958.0,0.0,0.0,0.0,0.0,0.0,0.0,0.0,0.0,0.0,1.0,2.0,0.0
959.0,0.0,0.0,0.0,0.0,0.0,0.0,0.0,0.0,0.0,1.0,2.0,0.0
960.0,0.0,0.0,0.0,0.0,0.0,0.0,0.0,0.0,0.0,1.0,2.0,0.0
961.0,0.0,0.0,0.0,0.0,0.0,0.0,0.0,0.0,0.0,1.0,2.0,0.0
962.0,0.0,0.0,0.0,0.0,0.0,0.0,0.0,0.0,0.0,1.0,2.0,0.0
963.0,0.0,0.0,0.0,0.0,0.0,0.0,0.0,0.0,0.0,1.0,2.0,0.0
964.0,0.0,0.0,0.0,0.0,0.0,0.0,0.0,0.0,0.0,1.0,2.0,0.0
965.0,0.4499999999998587,0.0,0.0,0.0,0.0,0.0,0.0,0.0,0.0,1.0,2.0,0.0
966.0,1.0,0.0,0.0,0.0,0.0,0.0,0.0,0.0,0.0,1.0,2.0,0.0
967.0,1.0,0.0,0.0,0.0,0.0,0.0,0.0,0.0,0.0,1.0,2.0,0.0
968.0,1.0,0.0,0.0,0.0,0.0,0.0,0.0,0.0,0.0,1.0,2.0,0.0
969.0,1.0,0.0,0.0,0.0,0.0,0.0,0.0,0.0,0.0,1.0,2.0,0.0
970.0,1.0,0.0,0.0,0.0,0.0,0.0,0.0,0.0,0.0,1.0,2.0,0.0
971.0,1.0,0.0,0.0,0.0,0.0,0.0,0.0,0.0,0.0,1.0,2.0,0.0
972.0,1.0,0.0,0.0,0.0,0.0,0.0,0.0,0.0,0.0,1.0,2.0,0.0
973.0,1.0,0.0,0.0,0.0,0.0,0.0,0.0,0.0,0.0,1.0,2.0,0.0
974.0,0.6900000000000488,0.0,0.0,0.0,0.0,0.0,0.0,0.0,0.0,1.0,2.0,0.0
975.0,0.12500000000003209,0.0,0.0,0.0,0.0,0.0,0.0,0.0,0.0,1.0,2.0,0.0
976.0,0.0,0.0,0.0,0.0,0.0,0.0,0.0,0.0,0.0,1.0,2.0,0.0
977.0,0.0,0.0,0.0,0.0,0.0,0.0,0.0,0.0,0.0,1.0,2.0,0.0
978.0,0.0,0.0,0.0,0.0,0.0,0.0,0.0,0.0,0.0,1.0,2.0,0.0
979.0,0.0,0.0,0.0,0.0,0.0,0.0,0.0,0.0,0.0,1.0,2.0,0.0
980.0,0.0,0.0,0.0,0.0,0.0,0.0,0.0,0.0,0.0,1.0,2.0,0.0
981.0,0.0,0.0,0.0,0.0,0.0,0.0,0.0,0.0,0.5299999999998792,1.0,2.0,0.0
982.0,0.0,0.0,0.0,0.0,0.0,0.0,0.0,0.0,1.0,1.0,2.0,0.0
983.0,0.0,0.0,0.0,0.0,0.0,0.0,0.0,0.0,1.0,1.0,2.0,0.0
984.0,0.0,0.0,0.0,0.0,0.0,0.0,0.0,0.0,1.0,1.0,2.0,0.0
985.0,0.0,0.0,0.0,0.0,0.0,0.0,0.0,0.0,1.0,1.0,2.0,0.0
986.0,0.0,0.0,0.0,0.0,0.0,0.0,0.0,0.0,0.8200000000000822,1.0,2.0,0.0
987.0,0.0,0.0,0.0,0.0,0.0,0.0,0.0,0.0,0.0,1.0,2.0,0.0
988.0,0.0,0.0,0.0,0.0,0.0,0.0,0.0,0.0,0.0,1.0,2.0,0.0
989.0,0.28499999999994474,0.0,0.0,0.0,0.0,0.0,0.0,0.0,0.0,1.0,2.0,0.0
990.0,0.8499999999999615,0.0,0.0,0.0,0.0,0.0,0.0,0.0,0.0,1.0,2.0,0.0
991.0,1.0,0.0,0.0,0.0,0.0,0.0,0.0,0.0,0.0,1.0,2.0,0.0
992.0,1.0,0.0,0.0,0.0,0.0,0.0,0.0,0.9599999999998613,0.9599999999998613,1.0,2.0,0.0
993.0,1.0,1.0,0.0,0.0,0.0,0.0,0.0,1.0,1.0,1.0,2.0,0.0
994.0,1.0,1.0,0.0,0.0,0.0,0.0,0.0,1.0,1.0,1.0,2.0,0.0
995.0,1.0,1.0,0.0,0.0,0.0,0.0,0.0,1.0,1.0,1.0,2.0,0.0
996.0,1.0,1.0,0.0,0.0,0.0,0.0,0.0,1.0,1.0,1.0,2.0,0.0
997.0,1.0,1.0,0.0,-0.3049999999999499,0.0,0.0,0.0,1.0,1.0,1.0,2.0,0.0
998.0,1.0,1.0,0.0,-0.8699999999999666,0.0,0.0,0.0,1.0,1.0,1.0,2.0,0.7399999999999333
999.0,1.0,1.0,0.0,-1.0,0.0,0.0,0.0,1.0,1.0,1.0,2.0,1.0
1000.0,1.0,1.0,0.0,-1.0,0.0,0.0,0.0,1.0,1.0,1.0,2.0,1.0
1001.0,1.0,1.0,0.0,-1.0,0.0,0.0,0.0,1.0,1.0,1.0,2.0,1.0
1002.0,1.0,1.0,0.0,-1.0,0.0,0.0,0.0,1.0,1.0,1.0,2.0,0.740000000000095
1003.0,1.0,1.0,0.0,-1.0,0.0,0.0,0.0,1.0,1.0,1.0,2.0,0.0
1004.0,1.0,1.0,0.0,-1.0,0.0,0.0,0.0,1.0,1.0,1.0,2.0,0.0
1005.0,1.0,1.0,0.0,-1.0,0.0,0.0,0.0,1.0,1.0,1.0,2.0,0.0
1006.0,1.0,1.0,0.0,-1.0,0.0,0.0,0.0,1.0,1.0,1.0,2.0,0.0
1007.0,1.0,1.0,0.0,-1.0,0.0,0.0,0.0,1.0,1.0,1.0,2.0,0.0
1008.0,1.0,1.0,0.0,-1.0,0.0,0.0,0.0,1.0,1.0,1.0,2.0,0.0
1009.0,1.0,1.0,0.0,-1.0,0.0,0.0,0.0,1.0,1.0,1.0,2.0,0.0
1010.0,1.0,1.0,0.0,-1.0,0.0,0.0,0.0,1.0,1.0,1.0,2.0,0.0
1011.0,1.0,1.0,0.0,-1.0,0.0,0.0,0.0,1.0,1.0,1.0,2.0,0.0
1012.0,1.0,1.0,0.0,-1.0,0.0,0.0,0.0,1.0,1.0,1.0,2.0,0.0
1013.0,1.0,1.0,0.0,-1.0,0.0,0.0,0.0,1.0,1.0,1.0,2.0,0.0
1014.0,1.0,1.0,0.0,-1.0,0.0,0.0,0.0,1.0,1.0,1.0,2.0,0.0
1015.0,1.0,1.0,0.0,-1.0,0.0,0.0,0.0,1.0,1.0,1.0,2.0,0.0
1016.0,1.0,1.0,0.0,-1.0,0.0,0.0,0.0,1.0,1.0,1.0,2.0,0.0
1017.0,1.0,1.0,0.0,-1.0,0.0,0.0,0.0,1.0,1.0,1.0,2.0,0.0
1018.0,1.0,1.0,0.0,-1.0,0.0,0.0,0.0,1.0,1.0,1.0,2.0,0.0
1019.0,1.0,1.0,0.0,-1.0,0.0,0.0,0.0,1.0,1.0,1.0,2.0,0.0
1020.0,1.0,1.0,0.0,-1.0,0.0,0.0,0.0,1.0,1.0,1.0,2.0,0.0
1021.0,1.0,1.0,0.0,-1.0,0.0,0.0,0.0,1.0,1.0,1.0,2.0,0.0
1022.0,1.0,1.0,0.0,-1.0,0.0,0.0,0.0,1.0,1.0,1.0,2.0,0.0
1023.0,1.0,1.0,0.0,-1.0,0.0,0.0,0.0,1.0,1.0,1.0,2.0,0.0
1024.0,1.0,1.0,0.0,-1.0,0.0,0.0,0.0,1.0,1.0,1.0,2.0,0.0
1025.0,1.0,1.0,0.0,-1.0,0.0,0.0,0.0,1.0,1.0,1.0,2.0,0.0
1026.0,1.0,1.0,0.0,-1.0,0.0,0.0,0.0,1.0,1.0,1.0,2.0,0.0
1027.0,1.0,1.0,0.0,-1.0,0.0,0.0,0.0,1.0,1.0,1.0,2.0,0.0
1028.0,1.0,1.0,0.0,-1.0,0.0,0.0,0.0,1.0,1.0,1.0,2.0,0.0
1029.0,1.0,1.0,0.0,-1.0,0.0,0.0,0.0,1.0,1.0,1.0,2.0,0.0
1030.0,1.0,1.0,0.0,-1.0,0.0,0.0,0.0,1.0,1.0,1.0,2.0,0.0
1031.0,1.0,0.985,0.0,-1.0,0.0,0.0,0.0,0.485,1.0,0.985,2.0,0.0
1032.0,1.0,0.4200000000001079,0.0,-1.0,0.0,0.0,0.0,0.0,1.0,0.4200000000001079,2.0,0.0
1033.0,1.0,0.28999999999981757,0.0,-1.0,0.0,0.0,0.0,0.0,1.0,0.0,2.0,0.0
1034.0,1.0,1.0,0.0,-1.0,0.0,0.0,0.0,0.0,1.0,0.0,2.0,0.0
1035.0,1.0,1.0,0.0,-1.0,0.0,0.0,0.0,0.0,1.0,0.0,2.0,0.0
1036.0,1.339999999999959,1.0,0.0,-1.0,0.0,0.0,0.0,0.0,1.0,0.0,2.0,0.0
1037.0,1.9049999999999756,1.0,0.0,-1.0,0.0,0.0,0.0,0.0,1.0,0.0,2.0,0.0
1038.0,2.0,1.0,0.0,-1.0,0.0,0.0,0.0,0.0,1.0,0.0,2.0,0.0
1039.0,2.0,1.0,0.0,-1.0,1.0,0.0,0.0,0.0,1.0,0.0,2.0,0.0
1040.0,2.0,1.0,0.0,-1.0,1.0,0.0,0.0,0.0,1.0,0.0,2.0,0.0
1041.0,2.0,1.0,0.0,-1.0,1.0,0.0,0.0,0.0,1.0,0.0,2.0,0.0
1042.0,2.0,1.0,0.0,-1.0,1.0,0.0,0.0,0.0,1.0,0.0,2.0,0.0
1043.0,2.0,1.0,0.0,-1.0,1.0,0.0,0.0,0.0,1.0,0.0,2.0,0.0
1044.0,2.0,1.0,0.0,-1.0,1.0,0.0,0.0,0.0,1.0,0.0,2.0,0.0
1045.0,2.0,1.0,0.0,-1.0,1.0,0.0,0.0,0.0,1.0,0.0,2.0,0.0
1046.0,2.0,1.0,0.0,-1.0,1.0,0.0,0.0,0.0,1.0,0.0,2.0,0.0
1047.0,2.0,1.0,0.0,-1.0,1.0,0.0,0.0,0.0,1.0,0.0,2.0,0.0
1048.0,1.7600000000001952,1.0,0.0,-1.0,1.0,0.0,0.0,0.0,1.0,0.0,2.0,0.0
1049.0,1.0,1.0,0.0,-1.0,1.0,0.0,0.0,0.0,1.0,0.0,2.0,0.0
1050.0,1.0,1.0,0.0,-1.0,1.0,0.0,0.0,0.0,1.0,0.0,2.0,0.0
1051.0,1.0,1.0,0.0,-1.0,1.0,0.0,0.0,0.0,1.0,0.0,2.0,0.0
1052.0,1.0,1.0,0.0,-1.0,1.0,0.0,0.0,0.0,1.0,0.0,2.0,0.0
1053.0,1.0,1.0,0.0,-1.0,1.0,0.0,0.0,0.0,1.0,0.0,2.0,0.0
1054.0,1.0,1.0,0.0,-1.0,1.0,0.0,0.0,0.0,1.0,0.0,2.0,0.0
1055.0,1.0,1.0,0.0,-1.0,1.0,0.0,0.0,0.0,1.0,0.0,2.0,0.0
1056.0,1.0,1.0,0.0,-1.0,1.0,0.0,0.0,0.0,1.0,0.0,2.0,0.0
1057.0,1.0,1.0,0.0,-1.0,1.0,0.0,0.0,0.0,1.0,0.0,2.0,0.0
1058.0,1.0,1.0,0.0,-1.0,1.0,0.0,0.0,0.0,1.0,0.0,2.0,0.0
1059.0,1.0,1.0,0.0,-1.0,0.3300000000000848,0.0,0.0,0.0,1.0,0.0,2.0,0.0
1060.0,1.0,1.0,0.0,-1.0,0.0,0.0,0.0,0.0,1.0,0.0,2.0,0.0
1061.0,1.0,1.0,0.0,-1.0,0.0,0.0,0.0,0.0,1.0,0.0,2.0,0.0
1062.0,1.0,1.0,0.0,-1.0,0.0,0.0,0.0,0.03,1.0,0.0,2.0,0.0
1063.0,1.0,1.0,0.0,-1.0,0.0,0.0,0.0,0.594999999999896,1.0,0.0,2.0,0.09499999999989595
1064.0,1.0,1.0,0.0,-1.0,0.0,0.0,0.0,1.0,1.0,0.0,2.0,0.6599999999999127
1065.0,1.0,1.0,0.0,-1.0,0.0,0.0,0.0,1.0,1.0,0.0,2.0,1.0
1066.0,1.0,1.0,0.0,-1.0,0.0,0.0,0.0,1.0,1.0,0.0,2.0,1.0
1067.0,1.0,1.0,0.0,-1.0,0.0,0.0,0.0,1.0,1.0,0.0,2.0,1.0
1068.0,1.0,1.0,0.0,-1.0,0.0,0.0,0.0,0.5800000000000205,1.0,0.0,2.0,0.1600000000000411
1069.0,1.0,1.0,0.0,-1.0,0.0,0.0,0.0,0.015000000000003844,1.0,0.0,2.0,0.0
1070.0,1.0,0.0,0.0,-1.0,0.0,0.0,0.0,0.0,1.0,0.0,2.0,0.0
1071.0,1.0,0.0,0.0,-1.0,0.0,0.0,0.0,0.0,1.0,0.0,2.0,0.0
1072.0,1.0,0.0,0.0,-1.0,0.0,0.0,0.0,0.0,1.0,0.0,2.0,0.0
1073.0,1.0,0.0,0.0,-1.0,0.0,0.0,0.0,0.0,1.0,0.0,2.0,0.0
1074.0,1.0,0.0,0.0,-1.0,0.6199999999999024,0.0,0.0,0.0,1.0,0.0,2.0,0.0
1075.0,1.0,0.0,0.0,-1.0,1.0,0.0,0.0,0.0,1.0,0.0,1.2500000000000642,0.0
1076.0,1.0,0.0,0.0,-1.0,1.0,0.0,0.0,0.0,1.0,0.0,1.0,0.0
1077.0,1.0,0.0,0.0,-1.0,1.0,0.0,0.0,0.0,1.0,0.0,1.0,0.0
1078.0,1.0,0.0,0.0,-1.0,1.0,0.0,0.0,0.0,1.0,0.0,1.0,0.0
1079.0,1.0,0.0,0.0,-1.0,1.0,0.0,0.0,0.0,1.0,0.0,1.0,0.0
1080.0,1.0,0.0,0.0,-1.0,1.0,0.0,0.0,0.0,1.0,0.0,1.0,0.0
1081.0,1.0,0.0,0.0,-1.0,1.0,0.0,0.0,0.0,1.0,0.0,1.0,0.0
1082.0,1.0,0.0,0.0,-1.0,0.34000000000008734,0.0,0.0,0.0,1.0,0.0,1.0,0.0
1083.0,0.605000000000027,0.0,0.0,-1.0,0.0,0.0,0.0,0.0,1.0,0.0,1.0,0.0
1084.0,0.04000000000001025,0.0,0.0,-1.0,0.0,0.0,0.0,0.0,1.0,0.0,1.0,0.0
1085.0,0.0,0.0,0.0,-1.0,0.0,0.0,0.0,0.0,1.0,0.0,1.0,0.0
1086.0,0.08999999999989466,0.0,0.0,-1.0,0.0,0.0,0.0,0.0,1.0,0.0,1.0,0.0
1087.0,0.6549999999999113,0.0,0.0,-1.0,0.0,0.0,0.0,0.0,1.0,0.0,1.0,0.0
1088.0,1.0,0.0,0.0,-0.5600000000001439,0.0,0.0,0.0,0.0,1.0,0.0,1.0,0.0
1089.0,0.7150000000000553,0.0,0.0,0.0,0.0,0.0,0.0,0.0,1.0,0.0,1.0,0.0
1090.0,0.15000000000003855,0.0,0.0,0.0,0.0,0.0,0.0,0.0,1.0,0.0,1.0,0.0
1091.0,0.0,0.0,0.0,0.0,0.0,0.0,0.0,0.0,1.0,0.0,1.0,0.0
1092.0,0.0,0.0,0.0,0.0,0.0,0.0,0.0,0.0,1.0,0.0,1.0,0.0
1093.0,0.0,0.0,0.0,0.0,0.0,0.0,0.0,0.0,1.0,0.0,1.0,0.0
1094.0,0.0,0.0,0.0,0.0,0.0,0.0,0.0,0.0,1.0,0.0,1.0,0.0
1095.0,0.0,0.0,0.0,0.0,0.0,0.0,0.0,0.0,1.0,0.0,1.0,0.0
1096.0,0.0,0.0,0.0,0.0,0.0,0.0,0.0,0.0,1.0,0.0,1.0,0.0
1097.0,0.0,0.0,0.0,0.0,0.0,0.0,0.0,0.0,1.0,0.0,1.0,0.0
1098.0,0.0,0.0,0.0,0.0,0.0,0.0,0.0,0.0,1.0,0.0,1.0,0.0
1099.0,0.0,0.0,0.0,0.0,0.0,0.0,0.0,0.0,1.0,0.0,1.0,0.0
1100.0,0.0,0.5,0.0,0.0,0.0,0.0,0.0,0.0,2.200000000000003,0.0,1.0,1.0
1101.0,-0.12999999999977646,2.1949999999996646,0.12999999999977646,-0.06499999999988823,0.0,0.5649999999998883,0.0,1.6949999999996648,7.058999999999038,0.6299999999997765,2.1299999999997765,2.8469999999995705
1102.0,-1.0,3.629999999999905,1.0,-0.5,0.0,1.0,0.0,3.0,10.146285714286192,1.6299999999999049,3.0,4.629999999999905
1103.0,-1.0,3.6100000000001566,1.0,-0.3050000000000783,0.0,1.0,0.0,2.6100000000001566,7.199285714286154,2.0,3.0,4.610000000000157
1104.0,-0.48000000000012333,2.3066666666668336,1.0,0.0,0.0,1.0,0.0,1.7400000000000617,4.200000000000308,1.4800000000001234,3.0,3.3066666666668336
1105.0,0.0,0.90833333333344,0.6750000000000449,0.0,0.0,1.0,0.0,1.175000000000045,1.3750000000002247,1.0,2.35000000000009,1.8000000000001184
1106.0,0.0,0.11000000000002824,0.11000000000002824,0.0,0.0,0.22000000000005648,0.0,0.22000000000005648,-0.6699999999999151,0.6100000000000283,2.0,0.2933333333334076
1107.0,0.0,0.0,0.0,0.0,0.0,0.0,0.0,0.0,-1.0,0.04500000000001153,2.0,0.0
1108.0,0.0,-0.039999999999999994,0.0,0.0,0.0,0.0,0.0,-0.019999999999999997,-2.0,0.0,1.0,0.0
1109.0,0.0,-1.0,0.0,0.0,0.0,0.0,0.0,-0.5849999999998934,-1.8300000000002132,0.0,1.0,0.0
1110.0,0.0,-1.0,0.0,0.0,0.0,0.0,0.0,-1.0,-1.0,-0.29999999999982013,1.0,0.0
1111.0,0.0,-1.0,0.0,0.0,0.0,0.0,0.0,-1.0,-1.0,-1.0,1.0,0.0
1112.0,0.0,-1.0,0.0,0.0,0.0,0.0,0.0,-0.7200000000000566,-1.0,-1.0,1.0,0.0
1113.0,0.0,-1.0,0.0,0.0,0.0,0.0,0.0,-0.15500000000003983,-1.0,-1.0,1.0,0.0
1114.0,0.0,-1.0,0.0,0.0,0.0,0.0,0.0,0.0,-0.5900000000000232,-1.0,1.0,0.0
1115.0,0.0,-1.0,0.0,0.0,0.0,0.0,0.0,0.0,-0.025000000000006406,-1.0,0.05000000000001281,0.0
1116.0,0.0,0.0,0.0,0.0,0.0,0.0,0.0,0.0,0.0,-1.0,0.0,0.0
1117.0,0.0,0.0,0.0,0.0,0.0,0.0,0.0,0.0,0.0,-1.0,0.0,0.0
1118.0,0.0,0.0,0.0,0.0,0.0,0.0,0.0,0.0,0.33999999999983044,-1.0,0.0,0.0
1119.0,0.0,0.0,0.0,0.0,0.0,0.0,0.0,0.0,1.0,-1.0,0.0,0.0
1120.0,0.0,0.0,0.0,0.0,0.0,0.0,0.0,0.0,1.0,-1.0,0.0,0.0
1121.0,0.0,0.0,0.0,0.0,0.0,0.0,0.0,0.0,1.0,-1.0,0.0,0.0
1122.0,0.0,0.0,0.0,0.0,0.0,0.0,0.0,0.0,1.0,-1.0,0.0,0.0
1123.0,0.0,0.0,0.0,0.0,0.0,0.0,0.0,0.0,1.0,-1.0,0.0,0.0
1124.0,0.0,0.0,0.0,0.0,0.0,0.0,0.0,0.0,1.0,-1.0,0.0,0.0
1125.0,0.0,0.0,0.0,0.0,0.0,0.0,0.0,0.0,1.0,-1.0,0.0,0.0
1126.0,0.0,0.0,0.0,0.0,0.0,0.0,0.0,0.0,0.6200000000001593,-1.0,0.0,0.0
1127.0,0.0,0.0,0.0,0.0,0.0,0.0,0.0,0.0,0.0,-1.0,0.0,0.0
1128.0,0.0,0.0,0.0,0.0,0.0,0.0,0.0,0.0,0.0,-1.0,0.0,0.0
1129.0,0.0,0.0,0.0,0.0,0.0,0.0,0.0,-0.3849999999999705,0.0,-1.0,0.0,0.0
1130.0,0.0,0.0,0.0,0.0,0.0,0.0,0.0,-0.9499999999999872,-0.8999999999999744,-1.0,0.0,0.0
1131.0,0.0,0.0,0.0,0.0,0.0,0.0,-0.015,-1.0,-1.0,-1.03,0.0,0.0
1132.0,0.0,0.0,0.0,0.0,0.0,0.0,-0.579999999999892,-1.0,-1.0,-2.0,0.0,0.07999999999989209
1133.0,0.0,0.0,0.0,0.0,0.0,0.0,-1.0,-1.0,-1.0,-2.0,0.0,0.6449999999999088
1134.0,0.0,0.0,0.0,0.0,0.0,0.0,-1.0,-1.0,-1.0,-2.0,0.0,1.0
1135.0,0.0,0.0,0.0,0.0,0.0,0.0,-1.0,-1.0,-1.2749999999999422,-2.0,0.2749999999999422,1.0
1136.0,0.0,0.0,0.0,0.0,0.0,0.0,-1.0,-1.0,-1.839999999999959,-2.0,0.8399999999999589,1.0
1137.0,0.0,0.0,0.0,0.0,0.0,0.0,-1.0,-1.0,-2.0,-2.0,1.0,1.4049999999999756
1138.0,0.0,0.0,0.0,0.0,0.0,0.0,-1.0,-1.9399999999999846,-2.469999999999992,-2.0,1.0,1.9699999999999922
1139.0,0.0,0.0,0.0,0.0,0.0,0.0,-1.0699999999997611,-2.0,-3.0,-2.0,1.0,2.0
1140.0,0.0,0.0,0.0,0.0,0.0,0.0,-2.0,-2.0,-3.099999999999897,-2.0,1.0,2.0
1141.0,0.0,0.0,0.0,0.0,0.0,0.0,-2.0,-2.3299999999998278,-3.664999999999914,-2.0,1.0,2.164999999999914
1142.0,0.0,0.0,0.0,0.0,0.0,0.0,-2.0,-3.0,-4.0,-2.4599999999998614,1.0,2.7299999999999307
1143.0,0.0,0.0,0.0,0.0,0.0,0.0,-2.0,-3.0,-4.589999999999895,-3.0,1.0,3.0
1144.0,0.0,0.0,0.0,0.0,0.0,0.0,-2.0,-3.359999999999964,-5.0,-3.0,1.0,3.0
1145.0,0.0,0.0,0.0,0.0,0.0,0.0,-2.0,-3.9249999999999807,-5.0,-3.0,1.0,3.0
1146.0,0.0,0.0,0.0,0.0,0.0,0.0,-2.0,-4.0,-5.0,-3.4899999999999975,1.0,3.0
1147.0,0.0,1.0,0.0,0.0,0.0,0.0,-2.109999999999771,-4.0,-5.0,-4.0,1.0,3.0
1148.0,0.0,1.0,0.0,0.0,0.0,0.0,-2.760000000000195,-4.0,-5.0,-4.0,1.0,3.0
1149.0,0.0,0.6300000000001619,0.0,0.0,0.0,0.0,-2.0,-4.0,-5.0,-4.0,1.0,3.0
1150.0,0.0,0.0,0.0,0.0,0.0,0.0,-2.0,-4.0,-5.0,-4.0,0.5000000000001285,3.0
1151.0,0.0,0.0,0.0,0.0,0.0,0.0,-2.0,-4.0,-5.0,-4.0,0.0,3.0
1152.0,0.0,0.0,0.0,0.0,0.0,0.0,-2.0,-4.0,-5.0,-4.7599999999999385,0.0,2.6200000000000307
1153.0,0.0,0.0,0.0,0.0,0.0,0.0,-2.0,-4.0,-4.555000000000014,-5.0,-0.44499999999998585,2.055000000000014
1154.0,0.0,0.0,0.0,0.0,0.0,0.0,-2.0,-3.0,-4.0,-6.0,-1.0,2.0
1155.0,0.0,0.0,0.0,0.0,0.0,0.0,-1.9250000000001093,-3.0,-4.0,-6.074999999999891,-1.0,1.9250000000001093
1156.0,0.0,0.0,0.0,0.0,0.0,0.0,-1.3600000000000925,-2.720000000000185,-3.8600000000000927,-6.639999999999907,-1.1399999999999075,1.3600000000000925
1157.0,0.0,0.0,0.0,0.0,0.0,0.0,-1.0,-2.0,-3.295000000000076,-7.204999999999925,-1.7049999999999241,0.7950000000000758
1158.0,0.0,0.0,0.0,0.0,0.0,0.0,-1.0,-1.460000000000118,-3.0,-7.769999999999941,-2.0,0.2300000000000591
1159.0,0.0,-0.3349999999999576,0.0,0.0,0.0,0.0,-0.6650000000000424,-1.0,-2.6650000000000422,-8.334999999999958,-2.669999999999915,0.0
1160.0,0.0,-0.8999999999999744,0.0,0.0,0.0,0.0,-0.10000000000002568,-1.0,-2.100000000000026,-8.899999999999974,-3.399999999999974,0.0
1161.0,-0.46499999999999103,-1.0,0.0,0.0,0.0,0.0,0.0,-0.535000000000009,-1.535000000000009,-9.464999999999991,-4.429999999999982,-0.46499999999999103
1162.0,-1.0,-2.0,0.0,0.0,0.0,0.0,0.0,0.05999999999975848,-1.0,-10.0,-5.0299999999998795,-1.0
1163.0,-1.0,-2.094999999999896,0.0,0.0,0.0,0.0,0.0,1.189999999999792,-0.905000000000104,-10.189999999999792,-5.594999999999896,-1.189999999999792
1164.0,-1.0,-2.6599999999999127,0.0,0.15999999999991266,0.0,0.0,0.3199999999998253,2.3199999999998253,-0.34000000000008734,-11.0,-6.319999999999825,-2.3199999999998253
1165.0,-1.0,-3.4499999999998585,0.0,0.7249999999999294,0.0,-0.4499999999998587,1.0,3.4499999999998585,0.4499999999998587,-11.224999999999929,-7.2249999999999295,-3.2249999999999295
1166.0,-1.0,-4.0,0.0,1.0,0.0,-1.0,1.5799999999998922,4.579999999999892,1.5799999999998922,-11.789999999999946,-7.789999999999946,-3.789999999999946
1167.0,-1.3549999999999627,-4.709999999999925,-0.7099999999999255,1.0,0.0,-1.0,2.0,5.473333333333287,2.3549999999999627,-12.0,-8.354999999999963,-4.354999999999963
1168.0,-1.9199999999999795,-5.0,-1.0,1.0,0.0,-1.4199999999999795,2.4199999999999795,6.786666666666613,3.339999999999959,-12.0,-8.919999999999979,-5.339999999999959
1169.0,-2.0,-5.969999999999993,-1.0,1.484999999999996,0.0,-1.984999999999996,2.9849999999999963,7.969999999999993,4.631666666666662,-12.0,-9.484999999999996,-5.984999999999996
1170.0,-2.0,-6.099999999999769,-1.0499999999998844,2.0,0.0,-2.0,3.0999999999997687,9.133333333333024,6.449999999999726,-11.900000000000231,-10.0,-7.0
1171.0,-2.0,-7.0,-1.6149999999999012,2.0,0.0,-2.114999999999901,4.0,10.601666666666432,7.7683333333331035,-11.0,-10.0,-7.229999999999802
1172.0,-2.0,-7.179999999999918,-2.0,2.0,0.0,-2.679999999999918,4.359999999999836,11.91999999999981,9.326666666666368,-10.640000000000164,-10.0,-8.179999999999918
1173.0,-2.4899999999998688,-7.744999999999934,-2.0,2.4899999999998688,0.0,-3.0,5.0,13.319999999999828,11.626999999999697,-9.510000000000131,-10.0,-8.744999999999935
1174.0,-3.0,-8.0,-2.0,3.0,0.0,-3.0,5.309999999999951,14.413333333333272,14.287999999999766,-8.173333333333467,-9.380000000000098,-9.0
1175.0,-3.0,-8.0,-2.374999999999968,3.0,0.0,-3.0,5.874999999999968,15.916666666666558,17.29999999999982,-6.66666666666675,-9.0,-9.749999999999936
1176.0,-3.0,-8.0,-2.9399999999999844,3.0,0.0,-3.8799999999999693,6.439999999999984,17.50666666666663,20.639999999999908,-4.866666666666721,-8.120000000000031,-10.439999999999985
1177.0,-3.0,-8.0,-3.0,3.0,0.0,-4.0,7.0,19.518333333333334,24.028,-2.98,-6.99,-11.0
1178.0,-3.0,-8.0,-3.0,3.0699999999998897,0.0,-4.0,7.069999999999889,21.5199999999997,27.207999999999352,-0.6920000000004858,-5.930000000000111,-11.139999999999779
1179.0,-3.0,-8.0,-3.0,3.634999999999906,0.0,-4.0,7.6349999999999065,23.161666666666328,30.736428571427858,1.9559999999994768,-5.230000000000188,-12.134999999999906
1180.0,-2.600000000000154,-8.399999999999846,-3.199999999999923,4.0,0.0,-4.399999999999846,8.0,25.29999999999969,34.81999999999949,5.199999999999537,-4.100000000000154,-12.899999999999846
1181.0,-2.0,-9.0,-3.7649999999999397,4.0,0.0,-5.0,8.529999999999879,27.71899999999972,38.071999999999704,8.48399999999966,-3.2350000000000603,-13.76499999999994
1182.0,-2.0,-9.0,-4.0,4.0,0.6599999999999127,-5.0,9.0,30.03199999999984,41.04799999999975,11.38399999999979,-2.3400000000000873,-14.329999999999956
1183.0,-2.0,-9.0,-4.0,4.0,1.0,-5.0,9.0,31.983333333333242,43.974999999999866,14.41199999999985,-1.210000000000054,-15.289999999999946
1184.0,-2.0,-9.0,-4.0,4.0,1.0,-5.45999999999999,9.45999999999999,33.559999999999974,46.33999999999996,17.759999999999938,-0.5400000000000102,-16.41999999999998
1185.0,-1.975000000000122,-9.0,-5.0,4.0,1.0,-6.0,10.0,35.39999999999967,48.399999999999686,21.149999999999267,0.04999999999975591,-17.049999999999756
1186.0,-1.4100000000001054,-9.17999999999979,-5.0,4.0,1.0,-6.0,10.0,36.96666666666632,49.966666666666306,24.539999999999367,1.2399999999997182,-18.17999999999979
1187.0,-1.0,-10.0,-5.0,4.154999999999911,1.1549999999999114,-6.0,10.309999999999823,38.74666666666642,51.746666666666435,27.929999999999467,2.69499999999979,-19.30999999999982
1188.0,-1.0,-10.0,-5.4399999999998565,4.719999999999928,1.719999999999928,-6.4399999999998565,11.0,40.25333333333314,53.25333333333314,31.231999999999594,3.939999999999856,-20.439999999999856
1189.0,-1.0,-10.0,-6.0,5.0,2.0,-7.0,11.0,41.56999999999989,54.56999999999989,34.167999999999736,4.784999999999945,-21.56999999999989
1190.0,-1.0,-10.699999999999923,-6.0,5.0,2.0,-7.0,11.349999999999962,42.46666666666661,55.34999999999996,37.01999999999981,5.699999999999923,-22.349999999999962
1191.0,-1.0,-11.0,-6.414999999999978,5.0,2.0,-7.0,11.914999999999978,43.77333333333328,56.329999999999956,39.79199999999989,6.8299999999999566,-23.329999999999956
1192.0,-0.04000000000001025,-11.0,-6.979999999999995,5.0,2.0,-7.95999999999999,12.479999999999995,44.48,56.98,42.40799999999997,7.95999999999999,-24.45999999999999
1193.0,0.0,-11.044999999999883,-7.0,5.0,3.0,-8.0,13.0,45.04499999999988,57.0,44.96799999999957,8.089999999999765,-25.089999999999765
1194.0,0.0,-11.6099999999999,-7.2199999999998,5.0,3.0,-8.0,13.0,45.6099999999999,57.0,47.069999999999624,9.2199999999998,-26.1099999999999
1195.0,0.0,-12.0,-8.0,5.0,3.0,-8.174999999999917,13.349999999999833,46.0,57.0,49.19999999999967,10.349999999999833,-26.674999999999915
1196.0,0.0,-12.0,-8.0,5.0,3.0,-8.739999999999933,14.0,46.0,56.52000000000013,51.45999999999973,11.479999999999867,-27.479999999999865
1197.0,0.0,-12.0,-8.0,5.0,3.0,-9.0,14.0,46.0,56.0,53.618333333333155,12.0,-28.0
1198.0,0.0,-12.0,-8.0,5.0,3.0,-9.0,14.0,46.0,55.63000000000003,55.31999999999991,12.739999999999933,-28.369999999999965
1199.0,-0.8699999999999666,-12.0,-8.434999999999983,5.0,3.0,-9.0,14.434999999999983,46.0,55.06500000000002,57.11666666666662,13.869999999999967,-28.934999999999985
1200.0,-1.0,-12.0,-9.0,5.0,3.0,-9.0,15.0,45.0,54.0,58.66666666666666,15.0,-29.0
1201.0,-1.0,-12.0,-9.0,6.0,3.1299999999997765,-9.129999999999777,15.0,45.0,53.0,60.06499999999989,16.0,-29.064999999999888
1202.0,-1.0,-12.0,-9.0,6.0,4.0,-10.0,15.0,44.74000000000019,52.74000000000019,60.80333333333311,16.25999999999981,-29.629999999999907
1203.0,-1.0,-12.194999999999922,-9.0,6.0,4.0,-10.0,15.0,43.80500000000008,51.80500000000008,62.186666666666454,17.389999999999844,-30.0
1204.0,-1.0,-12.759999999999938,-9.0,6.0,4.0,-10.0,15.0,43.24000000000006,51.24000000000006,63.519999999999875,18.519999999999875,-30.0
1205.0,-1.0,-13.0,-9.0,6.0,4.0,-10.0,15.0,43.0,50.67500000000005,64.32499999999996,19.324999999999957,-29.675000000000043
1206.0,-1.0,-13.0,-9.389999999999972,6.0,4.0,-10.0,14.610000000000028,42.220000000000056,50.11000000000003,65.27999999999994,19.889999999999972,-29.110000000000028
1207.0,-1.0,-13.0,-9.954999999999988,6.0,4.0,-10.0,14.045000000000012,41.54500000000001,49.090000000000025,65.95499999999998,20.909999999999975,-29.0
1208.0,-1.0,-13.0,-10.0,6.0,4.0,-10.0,14.0,40.96000000000025,48.480000000000125,67.0,22.039999999999754,-28.480000000000125
1209.0,-1.0,-13.0,-10.0,6.0,4.0,-10.169999999999787,13.915000000000108,40.0,47.915000000000106,67.16999999999979,23.084999999999894,-27.915000000000106
1210.0,-1.0,-13.0,-10.0,6.0,4.0,-11.0,13.35000000000009,39.70000000000018,47.35000000000009,68.1499999999999,23.79999999999982,-27.35000000000009
1211.0,-1.0,-12.785000000000073,-10.0,6.0,4.0,-11.0,13.0,38.785000000000075,46.57000000000015,68.71499999999993,25.001666666666498,-26.570000000000146
1212.0,-1.0,-12.220000000000056,-10.0,6.0,4.0,-11.0,13.0,38.220000000000056,45.44000000000011,69.0,26.413333333333185,-25.44000000000011
1213.0,-1.0,-12.0,-10.0,6.0,4.0,-11.0,12.31000000000008,37.65500000000004,45.0,69.68999999999993,27.34499999999996,-24.08000000000011
1214.0,-1.0,-11.590000000000023,-10.0,6.0,4.0,-10.590000000000023,12.0,36.68000000000005,43.90666666666672,70.0,28.319999999999954,-22.710000000000054
1215.0,-1.0,-11.025000000000006,-10.0,6.0,4.0,-10.025000000000006,11.050000000000013,35.55000000000001,42.40000000000003,70.0,29.44999999999999,-21.391666666666676
1216.0,-1.0,-10.920000000000236,-10.0,6.0,4.0,-10.0,10.460000000000118,34.46000000000012,40.61333333333348,70.0,30.539999999999882,-19.920000000000236
1217.0,-1.0,-10.0,-9.8950000000001,6.0,4.0,-10.0,9.8950000000001,33.72000000000027,39.68500000000031,70.0,31.104999999999897,-18.720000000000272
1218.0,-1.0,-10.0,-9.330000000000085,6.0,4.0,-10.0,9.330000000000085,32.21333333333356,37.82000000000034,70.0,31.83999999999983,-17.270000000000202
1219.0,-0.5300000000001361,-9.530000000000136,-9.0,6.0,4.0,-10.0,8.530000000000136,30.706666666666845,35.56000000000027,69.53000000000014,32.73499999999993,-15.951666666666823
1220.0,0.0,-9.0,-9.0,6.0,4.0,-10.0,7.4000000000001025,29.4000000000001,33.60000000000015,69.0,33.599999999999895,-14.533333333333468
1221.0,0.0,-9.0,-9.0,5.27000000000007,4.0,-10.0,6.635000000000034,28.27000000000007,31.905000000000104,68.63500000000003,34.0,-13.026666666666763
1222.0,0.0,-8.570000000000018,-9.0,5.0,4.0,-9.570000000000018,5.640000000000036,26.710000000000054,29.35000000000009,68.07000000000002,34.859999999999964,-11.663333333333377
1223.0,0.0,-8.005,-9.0,5.0,4.0,-9.005,4.5100000000000025,25.015000000000004,26.525000000000006,67.01,35.0,-10.344999999999999
1224.0,0.0,-8.0,-9.0,5.0,4.0,-9.0,3.880000000000226,23.840000000000302,24.760000000000453,65.94000000000011,36.0,-8.840000000000302
1225.0,0.0,-7.750000000000193,-8.875000000000096,5.0,4.0,-9.0,2.7500000000001927,22.33333333333359,22.25000000000058,65.2500000000002,36.0,-7.333333333333592
1226.0,0.0,-7.0,-8.31000000000008,5.0,4.0,-9.0,1.6200000000001593,20.636666666666954,18.86000000000048,64.05666666666686,36.0,-5.700000000000264
1227.0,0.0,-6.490000000000126,-8.0,4.490000000000126,4.0,-8.490000000000126,0.4900000000001259,18.735000000000188,15.725000000000314,62.65333333333351,36.50999999999988,-3.9866666666668342
1228.0,0.0,-6.0,-8.0,4.0,4.0,-8.0,0.0,17.360000000000092,13.220000000000185,61.36000000000009,37.0,-2.4800000000001217
1229.0,0.769999999999941,-5.6150000000000295,-8.0,4.0,4.0,-8.0,-0.5133333333332976,15.973333333333416,10.960000000000118,60.23000000000006,37.0,-1.230000000000059
1230.0,1.0,-5.050000000000013,-8.0,4.0,4.0,-8.0,-1.866666666666633,14.466666666666697,8.70000000000005,58.800000000000026,37.0,-0.10000000000002562
1231.0,1.0299999999997507,-4.0,-7.970000000000249,3.0,4.0,-7.485000000000125,-3.0299999999997507,12.97000000000025,6.455000000000374,57.29333333333368,37.0,1.0399999999996676
1232.0,2.0,-3.8400000000002157,-7.0,3.0,4.0,-7.0,-4.079999999999892,11.840000000000217,4.840000000000216,55.84000000000022,37.0,2.5199999999997442
1233.0,2.0,-2.855000000000091,-7.0,2.855000000000091,4.0,-7.0,-4.789999999999818,10.613333333333578,3.5650000000002735,54.565000000000275,37.0,3.838333333333122
1234.0,2.419999999999851,-2.2900000000000746,-7.0,2.2900000000000746,4.0,-6.580000000000149,-5.919999999999851,9.176666666666843,1.8700000000002235,52.870000000000225,36.58000000000015,5.366666666666419
1235.0,3.0,-1.4500000000001156,-7.0,2.0,4.0,-6.0,-6.774999999999942,7.858333333333466,0.45000000000011564,51.175000000000175,36.0,6.974999999999863
1236.0,3.0,-1.0,-6.320000000000082,2.0,4.0,-6.0,-7.679999999999918,6.426666666666775,-0.6799999999999178,49.480000000000125,36.0,7.839999999999959
1237.0,3.0,-0.1900000000000488,-6.0,1.1900000000000488,4.0,-5.595000000000025,-8.404999999999976,5.595000000000025,-1.0,48.46000000000004,36.0,8.80999999999995
1238.0,3.9399999999999844,0.0,-6.0,1.0,4.0,-5.030000000000007,-8.969999999999992,4.560000000000016,-1.0,46.76666666666669,36.0,9.939999999999985
1239.0,4.0,0.0,-6.0,0.930000000000239,4.0,-5.0,-10.0,3.4650000000001193,-0.930000000000239,45.24000000000033,35.0,11.06999999999976
1240.0,4.0,0.09999999999989723,-5.9000000000001025,0.0,4.0,-4.800000000000206,-10.199999999999795,2.900000000000103,0.0,43.8666666666668,35.0,12.099999999999897
1241.0,4.329999999999828,0.6649999999999139,-5.335000000000086,0.0,4.0,-4.0,-11.0,2.1700000000001722,0.3299999999998279,42.89333333333357,35.0,12.829999999999828
1242.0,5.0,1.0,-5.0,0.0,4.0,-4.0,-11.229999999999931,1.2700000000000693,1.4599999999998612,41.38666666666685,34.54000000000014,13.729999999999931
1243.0,5.0,1.5899999999998946,-5.0,0.0,4.0,-3.4100000000001054,-11.794999999999947,1.0,2.0,40.2733333333334,34.0,14.589999999999895
1244.0,5.0,2.0,-5.0,0.0,4.0,-3.0,-12.0,0.28000000000007197,2.719999999999928,39.04000000000009,34.0,15.0
1245.0,5.0,2.0,-5.0,0.0,4.0,-3.0,-12.0,0.0,4.133333333333278,37.53333333333339,33.15000000000004,15.424999999999981
1246.0,5.979999999999995,2.4899999999999975,-4.020000000000005,-0.9799999999999949,4.0,-2.5100000000000025,-12.0,0.0,5.47666666666666,36.02666666666667,33.0,15.989999999999997
1247.0,6.0,3.0,-4.0,-1.0,4.0,-2.0,-12.0,0.0,6.813333333333032,34.89000000000023,32.0,16.554999999999886
1248.0,6.0,3.1199999999999024,-4.0,-1.1199999999999024,4.0,-2.0,-12.0,0.0,8.31999999999974,33.7600000000002,31.8800000000001,17.0
1249.0,6.0,3.6849999999999192,-4.0,-1.684999999999919,4.0,-1.815000000000081,-11.630000000000162,0.0,9.764999999999809,32.63000000000016,31.31500000000008,17.0
1250.0,6.0,4.0,-4.0,-2.0,4.0,-1.2500000000000642,-11.0,0.49999999999987155,11.083333333333186,31.500000000000128,30.500000000000128,17.0
1251.0,6.0,4.0,-3.370000000000095,-2.0,4.0,-1.0,-11.0,1.0,12.506666666666542,30.370000000000093,30.0,17.629999999999907
1252.0,6.0,4.0,-3.0,-2.0,4.0,-1.0,-10.620000000000031,1.7599999999999385,13.379999999999969,29.49333333333337,29.62000000000003,18.0
1253.0,6.0,4.444999999999986,-3.0,-2.8899999999999717,4.0,-1.0,-10.055000000000014,2.444999999999986,14.389999999999972,28.146666666666704,29.055000000000014,18.0
1254.0,6.0,5.0,-3.0,-3.0,4.0,0.0,-9.490000000000126,3.019999999999748,15.509999999999874,26.980000000000253,27.990000000000126,18.0
1255.0,6.0,5.0,-2.8500000000002186,-3.0,4.0,0.0,-8.850000000000218,4.0,16.149999999999782,25.850000000000218,27.42500000000011,18.0
1256.0,6.0,5.0,-2.0,-3.0,3.720000000000185,0.0,-8.0,4.139999999999907,17.0,24.860000000000092,26.860000000000092,17.720000000000184
1257.0,5.590000000000152,5.0,-2.0,-3.0,3.0,0.0,-7.795000000000075,4.704999999999925,17.0,24.090000000000153,26.295000000000076,17.0
1258.0,5.0,5.0,-2.0,-3.269999999999941,3.0,0.0,-7.230000000000059,5.0,17.0,22.960000000000118,25.460000000000118,17.0
1259.0,5.0,5.0,-2.0,-3.8349999999999578,3.0,0.0,-7.0,5.0,17.0,22.165000000000042,24.330000000000084,17.0
1260.0,5.0,5.0,-1.6000000000000256,-4.0,3.0,0.0,-6.600000000000025,5.0,16.200000000000053,21.200000000000053,24.0,17.0
1261.0,5.0,5.0,-1.035000000000009,-4.0,3.0,0.0,-6.035000000000009,5.0,15.535000000000009,20.070000000000018,23.070000000000018,16.535000000000007
1262.0,4.4700000000001205,5.0,-1.0,-4.0,3.0,0.5299999999998792,-6.0,4.4700000000001205,14.940000000000241,18.940000000000243,22.0,16.0
1263.0,4.0,5.0,-1.0,-4.0,2.905000000000104,1.0,-5.810000000000208,4.0,13.905000000000104,17.81000000000021,21.81000000000021,16.0
1264.0,4.0,5.0,-0.8400000000000873,-4.0,2.3400000000000873,1.0,-5.0,3.8400000000000873,13.12666666666687,16.680000000000174,20.680000000000174,15.680000000000174
1265.0,4.0,5.0,-0.27500000000007063,-4.0,2.0,1.0,-5.0,3.2750000000000705,11.733333333333519,15.550000000000141,19.77500000000007,15.0
1266.0,3.420000000000108,5.0,0.0,-4.0,2.0,1.0,-4.420000000000108,2.420000000000108,10.420000000000108,14.420000000000108,18.92000000000011,14.710000000000054
1267.0,3.0,5.0,0.0,-4.0,2.0,1.0,-4.0,2.0,9.290000000000074,13.290000000000074,18.14500000000004,14.145000000000037
1268.0,3.0,5.0,0.0,-4.0,2.0,1.839999999999959,-4.0,1.5800000000000205,8.160000000000041,12.160000000000041,17.160000000000043,14.0
1269.0,3.0,5.0,0.0,-4.0,2.0,2.0,-4.0,1.015000000000004,7.030000000000007,11.030000000000008,16.515000000000004,13.515000000000004
1270.0,2.4500000000001156,4.450000000000116,0.0,-4.0,1.9000000000002313,2.0,-3.4500000000001156,0.0,5.900000000000231,9.900000000000231,15.450000000000115,13.0
1271.0,2.0,4.0,0.0,-4.0,1.0,2.0,-3.0,-0.11499999999990108,4.770000000000198,8.770000000000199,14.770000000000199,12.770000000000199
1272.0,2.0,4.0,0.0,-4.0,1.0,2.0,-3.0,-0.6799999999999178,3.6400000000001644,7.640000000000164,13.640000000000164,12.0
1273.0,2.0,4.0,0.0,-3.7550000000000656,1.0,2.0,-3.0,-1.0,2.5100000000001312,6.510000000000131,12.755000000000065,11.755000000000065
1274.0,1.6900000000000488,4.0,0.0,-3.190000000000049,1.0,2.0,-3.0,-1.0,1.3800000000000976,5.173333333333466,11.880000000000098,11.19000000000005
1275.0,1.125000000000032,4.0,0.0,-3.0,1.0,2.0,-3.0,-1.7499999999999358,0.25000000000006417,4.1666666666667105,11.125000000000032,11.0
1276.0,1.0,4.0,0.0,-3.0,1.0,2.0,-2.5600000000000156,-2.0,0.0,3.1200000000000307,10.120000000000031,10.560000000000015
1277.0,1.0,3.0,1.0,-3.0,0.49500000000012717,2.0,-2.0,-3.0,-1.0,1.9866666666670059,9.490000000000254,10.0
1278.0,1.0,3.0,1.0,-3.0,0.0,2.0,-2.0,-3.139999999999779,-1.0,0.5733333333334847,8.43000000000011,9.860000000000221
1279.0,1.0,3.0,1.0,-3.0,0.0,2.0,-2.0,-4.0,-1.2699999999998124,-0.26999999999981245,7.8650000000000935,9.0
1280.0,1.0,3.0,1.0,-3.0,0.0,2.0,-2.0,-4.199999999999923,-2.199999999999923,-1.3999999999998458,7.100000000000154,9.0
1281.0,0.47000000000012077,3.0,1.0,-3.0,0.0,2.0,-2.0,-4.764999999999939,-2.7649999999999397,-2.5299999999998795,6.235000000000061,8.73500000000006
1282.0,0.0,3.0,1.0,-3.0,0.0,2.0,-2.0,-5.0,-3.6599999999999127,-3.6599999999999127,5.340000000000087,8.170000000000044
1283.0,0.0,3.0,1.0,-3.0,0.0,2.0,-2.0,-5.394999999999973,-4.0,-4.0,5.0,8.0
1284.0,0.0,3.0,1.0,-2.5400000000000102,0.0,2.0,-2.0,-5.95999999999999,-4.9199999999999795,-4.0,4.0800000000000205,8.0
1285.0,0.0,2.975000000000122,1.0,-2.0,0.0,2.0,-2.0,-6.049999999999756,-5.024999999999878,-5.049999999999756,3.0,7.950000000000244
1286.0,0.0,2.4100000000001054,1.0,-2.0,0.0,2.0,-2.0,-7.0,-5.589999999999895,-6.179999999999789,2.820000000000211,7.0
1287.0,0.0,2.0,1.0,-2.0,0.0,2.0,-2.0,-7.0,-6.0,-7.0,2.0,7.0
1288.0,0.0,2.0,1.0,-2.0,0.0,2.0,-2.0,-7.0,-6.0,-7.4399999999998565,1.560000000000144,7.0
1289.0,0.0,2.0,1.5699999999998895,-2.0,0.0,2.0,-2.0,-7.284999999999945,-6.0,-8.56999999999989,0.7150000000000553,7.0
1290.0,0.0,2.0,2.0,-2.0,0.0,2.0,-2.0,-7.8499999999999615,-6.699999999999923,-9.0,0.15000000000003855,7.0
1291.0,0.0,2.0,2.0,-2.0,0.0,2.0,-2.0,-8.0,-7.0,-9.829999999999956,0.0,7.0
1292.0,0.0,2.0,2.0,-2.0,0.0,2.0,-2.0,-8.0,-7.0,-10.47999999999987,-0.959999999999743,7.0
1293.0,0.0,2.0,2.0,-1.9550000000001169,0.0,2.0,-2.0,-8.0,-7.0,-11.044999999999883,-1.0,6.0
1294.0,0.0,2.0,2.0,-1.3900000000001003,0.0,2.0,-2.0,-8.0,-7.0,-11.6099999999999,-1.0,6.0
1295.0,0.0,2.0,2.0,-1.0,0.0,2.0,-2.0,-8.0,-7.0,-12.174999999999917,-1.0,6.0
1296.0,0.0,2.0,2.0,-1.0,0.0,2.0,-2.0,-8.0,-7.0,-12.739999999999933,-1.2399999999999332,6.0
1297.0,0.0,2.0,2.0,-1.0,0.0,2.0,-2.0,-8.0,-7.0,-13.30499999999995,-1.80499999999995,6.0
1298.0,0.0,2.0,2.0,-1.0,0.0,2.0,-2.0,-8.0,-7.0,-13.869999999999967,-2.0,6.0
1299.0,0.0,2.0,2.0,-1.0,0.0,2.0,-2.0,-8.0,-7.0,-14.0,-2.434999999999983,6.0
1300.0,0.0,2.0,2.0,-1.0,0.0,2.0,-2.0,-8.999999999999742,-7.499999999999871,-14.499999999999872,-2.9999999999998717,6.0
1301.0,0.0,2.0,2.0,-1.0,-0.5649999999998883,2.0,-2.0,-9.0,-8.0,-15.0,-3.0,6.0
1302.0,0.0,2.0,2.0,-1.0,-1.0,2.0,-2.0,-9.0,-8.0,-15.129999999999905,-3.129999999999905,6.0
1303.0,0.0,2.0,2.0,-1.0,-1.0,2.0,-2.0,-9.0,-8.0,-15.694999999999922,-3.6949999999999217,6.0
1304.0,0.0,2.0,2.0,-1.0,-1.0,2.0,-2.0,-9.0,-8.0,-16.0,-4.0,6.0
1305.0,0.0,2.0,2.0,-1.0,-1.0,2.0,-2.0,-9.0,-8.324999999999955,-16.64999999999991,-4.0,6.0
1306.0,0.0,2.0,2.0,-1.0,-1.0,2.0,-2.0,-9.0,-8.889999999999972,-17.0,-4.0,6.0
1307.0,0.0,2.0,2.0,-1.0,-1.0,2.0,-2.0,-9.0,-9.0,-17.0,-4.4549999999999885,6.0
1308.0,0.0,2.0,2.0,-1.0,-1.0,2.0,-2.0,-9.0,-9.0,-17.039999999999754,-5.0,6.0
1309.0,0.0,2.0,2.0,-1.0,-1.0,2.0,-2.0,-9.0,-9.0,-18.0,-5.0,6.0
1310.0,0.0,2.0,2.0,-1.0,-1.0,2.0,-2.0,-9.0,-9.0,-18.0,-5.0,6.0
1311.0,0.0,2.0,2.0,-1.0,-1.0,2.0,-2.0,-9.0,-9.0,-18.0,-5.0,6.0
1312.0,0.0,2.0,2.0,-1.0,-1.0,2.0,-2.0,-9.0,-9.0,-18.0,-5.0,6.0
1313.0,0.0,2.0,2.0,-1.0,-1.0,2.0,-2.0,-9.0,-9.0,-18.68999999999992,-5.6899999999999205,6.0
1314.0,0.0,2.0,2.0,-1.0,-1.0,2.0,-2.0,-9.0,-9.0,-19.0,-6.0,6.0
1315.0,0.0,2.0,2.0,-1.0,-1.0,2.0,-2.0,-9.0,-9.0,-19.0,-6.0,6.0
1316.0,0.0,2.0,2.0,-1.0,-1.0,2.0,-2.0,-9.0,-9.0,-19.0,-6.0,5.920000000000236
1317.0,0.0,2.0,2.0,-1.0,-1.0,2.0,-2.0,-9.0,-9.0,-19.0,-6.0,5.0
1318.0,0.0,2.0,2.0,-1.0,-1.0,2.0,-2.0,-9.0,-9.0,-19.0,-6.0,5.0
1319.0,0.0,2.0,2.0,-1.0,-1.0,2.0,-2.0,-9.0,-9.0,-19.469999999999864,-6.0,5.0
1320.0,0.0,2.0,2.0,-1.0,-1.0,2.0,-2.0,-9.0,-9.0,-20.0,-6.0,5.0
1321.0,0.0,2.0,2.0,-1.0,-1.0,2.0,-2.0,-9.0,-9.0,-20.0,-6.0,5.0
1322.0,0.0,2.0,2.0,-1.0,-1.0,2.0,-2.0,-9.859999999999964,-9.0,-20.0,-6.0,5.0
1323.0,0.0,2.0,2.0,-1.0,-1.0,2.0,-2.0,-10.0,-9.0,-20.0,-6.989999999999743,5.0
1324.0,0.0,2.0,2.0,-1.0,-1.0,2.0,-2.0,-10.0,-10.0,-20.0,-7.0,5.0
1325.0,0.0,2.0,2.0,-1.0,-1.0,2.0,-2.0,-10.0,-10.0,-20.0,-7.0,5.0
1326.0,0.0,2.0,2.0,-1.0,-1.0,2.0,-2.0,-10.0,-10.0,-20.0,-7.0,5.0
1327.0,0.0,2.0,2.0,-1.0,-1.0,2.0,-2.0,-10.0,-10.0,-20.509999999999874,-7.0,5.0
1328.0,0.0,2.0,2.0,-1.0,-1.0,2.0,-2.0,-10.0,-10.0,-21.0,-7.0,5.0
1329.0,0.0,2.0,2.0,-1.0,-1.0,2.0,-2.0,-10.0,-10.0,-21.0,-7.0,5.0
1330.0,0.0,2.0,2.0,-1.0,-1.0,2.0,-2.0,-10.0,-10.0,-21.0,-7.0,5.0
1331.0,0.0,2.0,2.0,-1.0,-1.0,2.0,-2.0,-10.0,-10.0,-21.0,-7.0,5.0
1332.0,0.0,2.0,2.0,-1.0,-1.0,2.0,-2.0,-10.0,-10.0,-21.0,-7.0,5.0
1333.0,0.0,2.0,2.0,-1.0,-1.0,2.0,-2.0,-10.0,-10.0,-21.0,-7.0,5.0
1334.0,0.0,2.0,2.0,-1.0,-0.7900000000000745,2.0,-2.0,-10.0,-10.0,-21.0,-7.0,5.0
1335.0,0.0,2.0,2.0,-1.0,-0.22500000000005782,2.0,-2.0,-10.0,-10.0,-21.0,-7.0,5.0
1336.0,0.0,2.0,2.0,-1.0,0.0,2.0,-2.0,-10.0,-10.0,-21.0,-7.339999999999959,5.0
1337.0,0.0,2.0,2.0,-1.0,0.0,2.0,-2.0,-10.0,-10.0,-21.0,-7.904999999999975,5.0
1338.0,0.0,2.0,2.0,-1.0,0.0,2.0,-2.0,-10.0,-10.0,-21.0,-8.0,5.0
1339.0,0.0,2.0,2.0,-1.0,0.0,2.0,-2.0,-10.0,-10.0,-21.0,-8.0,5.0
1340.0,0.0,2.0,2.0,-1.0,0.0,2.0,-2.0,-10.0,-10.0,-21.199999999999793,-8.0,5.0
1341.0,0.0,2.0,2.0,-1.0,0.0,2.0,-2.0,-10.0,-10.0,-22.0,-8.0,5.0
1342.0,0.0,2.0,2.0,-1.0,0.0,2.0,-2.0,-10.0,-10.0,-22.0,-8.0,5.0
1343.0,0.0,2.0,2.0,-1.0,0.0,2.0,-2.0,-10.0,-10.0,-22.0,-8.0,5.0
1344.0,0.0,1.280000000000072,2.0,-1.0,-0.719999999999928,2.0,-2.0,-10.0,-10.0,-22.0,-8.0,5.0
1345.0,0.0,1.0,2.0,-1.0,-1.0,2.0,-2.0,-10.0,-10.0,-22.0,-8.0,5.0
1346.0,0.0,1.0,2.0,-1.0,-1.0,2.0,-2.0,-10.0,-10.489999999999872,-22.0,-8.0,5.0
1347.0,0.0,2.0,2.0,-1.0,0.0,2.0,-2.0,-10.0,-10.0,-22.0,-8.0,5.0
1348.0,0.0,2.0,2.0,-1.0,0.0,2.0,-2.0,-10.0,-10.0,-22.0,-8.0,5.0
1349.0,0.0,2.0,2.0,-1.0,0.0,2.0,-2.0,-10.0,-10.0,-22.0,-8.0,5.0
1350.0,0.0,2.0,2.0,-1.0,0.0,2.0,-2.0,-10.0,-10.0,-22.0,-8.0,5.0
1351.0,0.0,2.0,2.0,-1.0,0.0,2.0,-2.0,-10.0,-10.0,-22.0,-8.0,5.0
1352.0,0.0,2.0,1.2400000000000615,-1.0,0.0,2.0,-2.0,-10.0,-10.0,-22.0,-8.0,5.0
1353.0,0.0,2.0,1.0,-1.0,0.0,2.0,-2.0,-10.0,-10.0,-22.0,-8.0,5.0
1354.0,0.0,2.0,1.0,-1.0,0.0,2.0,-2.0,-10.0,-10.0,-22.0,-8.0,5.0
1355.0,0.0,2.0,1.0,-1.0,0.0,2.0,-2.0,-10.0,-10.0,-22.0,-8.0,5.0
1356.0,0.0,2.0,1.0,-1.0,0.0,2.0,-2.0,-10.0,-10.0,-22.0,-8.0,5.0
1357.0,0.0,2.0,1.0,-1.0,0.0,2.0,-2.0,-10.0,-10.0,-22.0,-8.0,5.0
1358.0,0.0,2.0,1.539999999999882,-1.0,0.0,2.0,-2.0,-10.0,-10.269999999999941,-22.0,-8.0,5.0
1359.0,0.0,2.0,2.0,-1.0,0.0,2.0,-2.0,-10.0,-10.834999999999958,-22.0,-8.0,5.0
1360.0,0.0,2.0,2.0,-1.0,0.0,2.0,-2.0,-10.0,-11.0,-22.0,-8.0,5.0
1361.0,0.0,2.0,2.0,-1.0,0.0,2.0,-2.0,-10.0,-11.0,-22.0,-8.0,5.0
1362.0,0.0,1.9700000000001208,2.0,-1.0,0.0,2.0,-2.0,-10.0,-11.0,-22.0,-8.0,4.9700000000001205
1363.0,0.0,1.4050000000001042,2.0,-1.0,-0.1899999999997919,2.0,-2.0,-10.094999999999896,-11.0,-22.0,-8.0,4.405000000000104
1364.0,0.0,1.0,2.0,-1.0,-1.0,2.0,-2.0,-10.659999999999913,-11.0,-22.0,-8.0,4.0
1365.0,0.0,1.0,2.0,-1.0,-1.0,2.0,-2.0,-11.0,-11.0,-22.0,-8.224999999999929,4.0
1366.0,0.0,1.0,2.0,-0.42000000000010795,-1.0,2.0,-2.0,-11.0,-11.0,-22.0,-8.789999999999946,4.0
1367.0,0.0,1.0,2.0,0.0,-1.0,2.0,-2.0,-11.0,-11.0,-22.709999999999926,-9.0,4.0
1368.0,0.0,1.0,2.0,0.0,-1.0,2.0,-2.0,-11.0,-11.0,-23.0,-9.0,4.0
1369.0,0.0,1.0,2.0,0.0,-1.0,2.0,-2.0,-11.0,-11.0,-23.0,-9.0,4.0
1370.0,0.0,1.0,2.0,0.0,-1.0,2.0,-2.0,-11.0,-11.0,-23.0,-9.0,4.0
1371.0,0.0,1.0,2.0,0.0,-1.0,2.0,-2.0,-11.0,-11.0,-23.0,-9.0,4.0
1372.0,0.0,1.0,2.0,0.0,-1.0,2.0,-2.0,-11.0,-11.0,-23.0,-9.0,4.0
1373.0,0.0,1.0,2.0,0.0,-1.0,2.0,-2.0,-11.0,-11.0,-23.0,-9.0,4.0
1374.0,0.0,1.0,2.0,0.0,-1.0,2.0,-2.0,-11.0,-11.0,-23.0,-9.0,4.0
1375.0,0.0,1.0,2.0,0.0,-1.0,2.0,-2.0,-11.0,-11.0,-23.0,-9.0,4.0
1376.0,0.0,1.0,2.0,0.0,-1.0,2.0,-2.0,-11.0,-11.0,-23.0,-9.0,4.0
1377.0,0.0,1.0,2.0,0.0,-1.0,2.0,-2.0,-11.0,-11.0,-23.0,-9.0,4.0
1378.0,0.0,1.0,2.0,0.0,-1.0,2.0,-2.0,-11.0,-11.0,-23.0,-9.0,4.0
1379.0,0.0,1.0,2.0,0.0,-1.0,2.0,-2.0,-11.0,-11.0,-23.0,-9.0,4.0
1380.0,0.0,1.0,2.0,0.0,-1.0,2.0,-2.0,-11.0,-11.0,-23.0,-9.0,4.0
1381.0,0.0,1.0,2.0,0.0,-1.0,2.0,-2.0,-11.0,-11.0,-23.0,-9.0,4.0
1382.0,0.0,1.0,2.0,0.0,-1.0,2.0,-2.0,-11.0,-11.0,-23.0,-9.0,4.0
1383.0,0.0,1.0,2.0,0.0,-1.0,2.0,-2.0,-11.0,-11.0,-23.0,-9.0,4.0
1384.0,0.0,1.0,2.0,0.0,-1.0,2.0,-2.0,-11.0,-11.919999999999742,-23.0,-9.0,4.0
1385.0,0.0,1.0,2.0,0.0,-1.0,2.0,-2.0,-11.0,-12.0,-23.0,-9.0,4.0
1386.0,0.0,1.0,2.0,0.0,-1.0,2.0,-2.0,-11.0,-12.0,-23.0,-9.0,4.0
1387.0,0.0,1.0,2.0,0.0,-1.0,2.0,-2.0,-11.0,-12.0,-23.0,-9.0,4.0
1388.0,0.0,1.0,2.0,0.0,-1.0,1.780000000000072,-2.0,-11.0,-12.0,-23.0,-9.0,4.0
1389.0,0.0,1.0,2.0,0.0,-1.0,1.2150000000000554,-2.0,-11.0,-12.0,-23.0,-9.0,4.0
1390.0,0.0,1.0,2.0,0.0,-1.0,1.0,-2.0,-11.0,-12.0,-23.0,-9.0,4.0
1391.0,0.0,1.0,2.0,0.0,-1.0,1.0,-2.0,-11.0,-12.0,-23.0,-9.0,4.0
1392.0,0.0,1.0,2.0,0.0,-1.0,1.0,-2.0,-11.0,-12.0,-23.0,-9.0,4.0
1393.0,0.0,1.0,2.0,0.0,-1.0,1.0,-2.0,-11.0,-12.0,-23.0,-9.0,4.0
1394.0,0.0,1.0,2.0,0.0,-1.0,1.1099999999998997,-2.0,-11.0,-12.0,-23.2199999999998,-9.0,4.0
1395.0,0.0,1.0,2.0,0.0,-1.0,1.6749999999999166,-2.0,-11.0,-12.0,-24.0,-9.0,4.0
1396.0,0.0,1.0,2.0,0.0,-1.0,2.0,-2.0,-11.0,-12.0,-24.0,-9.0,4.0
1397.0,0.0,1.0,2.0,0.0,-1.0,2.0,-2.0,-11.0,-12.0,-24.0,-9.0,4.0
1398.0,0.0,1.0,2.0,0.0,-1.0,2.0,-2.0,-11.0,-12.0,-24.0,-9.0,4.0
1399.0,0.0,1.0,2.0,0.0,-1.0,2.0,-2.0,-11.0,-12.0,-24.0,-9.869999999999967,4.0
1400.0,0.0,1.0,2.0,0.0,-1.0,2.0,-2.0,-11.0,-12.0,-24.0,-10.0,4.0
1401.0,0.0,1.0,2.0,0.0,-1.0,2.0,-2.0,-11.129999999999777,-12.064999999999888,-24.0,-10.0,4.0
1402.0,0.0,1.0,2.0,0.0,-1.0,2.0,-2.0,-12.0,-12.629999999999905,-24.0,-10.0,4.0
1403.0,0.0,1.0,2.0,0.0,-1.0,2.0,-2.0,-12.0,-13.0,-24.0,-10.0,4.0
1404.0,0.0,1.0,2.0,0.0,-1.0,2.0,-2.0,-12.0,-13.0,-24.0,-10.0,4.0
1405.0,0.0,1.0,2.0,0.0,-1.0,1.675000000000045,-2.0,-12.0,-13.0,-24.0,-10.0,4.0
1406.0,0.0,1.0,2.0,0.0,-1.0,1.1100000000000283,-2.0,-12.0,-13.0,-24.0,-10.0,3.2200000000000566
1407.0,0.0,1.0,2.0,0.0,-1.0,1.0,-2.0,-12.0,-13.0,-24.0,-10.0,3.0
1408.0,0.0,1.0,2.0,0.0,-1.0,1.0,-2.0,-12.0,-13.0,-24.019999999999875,-10.0,3.0
1409.0,0.0,1.0,2.0,0.0,-1.0,1.0,-2.0,-12.0,-13.0,-24.584999999999894,-10.0,3.0
1410.0,0.0,1.0,2.0,0.0,-1.0,1.0,-2.0,-12.0,-13.0,-25.0,-10.0,3.0
1411.0,0.0,1.0,2.0,0.0,-1.0,1.0,-2.0,-12.0,-13.0,-25.0,-10.0,3.0
1412.0,0.0,1.0,2.0,0.0,-1.0,1.0,-2.0,-12.0,-13.0,-25.0,-10.0,3.0
1413.0,0.0,1.0,2.0,0.0,-1.0,1.0,-2.0,-12.0,-13.0,-25.0,-10.0,3.0
1414.0,0.0,1.0,2.0,0.0,-1.0,1.0,-2.0,-12.0,-13.409999999999977,-25.0,-10.0,3.0
1415.0,0.0,1.0,2.0,0.0,-1.0,1.0,-2.0,-12.0,-13.974999999999872,-25.0,-10.0,3.0
1416.0,0.0,1.0,2.0,0.0,-1.0,1.0,-2.0,-12.0,-14.0,-25.0,-10.079999999999764,3.0
1417.0,0.0,1.0,2.0,0.0,-1.0,1.0,-2.0,-12.0,-14.0,-25.0,-11.0,3.0
1418.0,0.0,1.0,2.0,0.0,-1.0,1.0,-2.0,-12.339999999999831,-14.0,-25.0,-11.0,3.0
1419.0,0.0,1.0,2.0,0.0,-1.0,1.0,-2.0,-13.0,-14.0,-25.469999999999864,-11.0,3.0
1420.0,0.0,1.0,2.0,0.0,-1.0,1.0,-2.0,-13.0,-14.0,-26.0,-11.0,3.0
1421.0,0.0,1.0,2.0,0.0,-1.0,1.0,-2.0,-13.0,-14.0,-26.0,-11.0,3.0
1422.0,0.0,1.0,2.0,0.0,-1.0,1.0,-2.0,-13.0,-14.859999999999964,-26.0,-11.0,3.0
1423.0,0.0,1.0,2.0,0.0,-1.0,1.0,-2.0,-13.0,-15.0,-26.0,-11.0,3.0
1424.0,-0.05999999999988695,1.0,2.0,0.0,-1.0,1.0,-2.0,-13.0,-15.0,-26.0,-11.0,3.0
1425.0,-0.6249999999999036,1.0,2.0,0.0,-1.0,1.0,-2.0,-13.0,-15.0,-26.0,-11.0,3.0
1426.0,-1.0,1.0,2.0,0.0,-1.0,1.0,-2.0,-13.0,-15.0,-26.0,-11.0,3.0
1427.0,-1.0,1.0,2.0,0.0,-1.0,1.0,-2.0,-13.0,-15.254999999999937,-26.509999999999874,-11.254999999999937,3.0
1428.0,-1.0,1.0,2.0,0.0,-1.0,1.0,-2.0,-13.0,-15.819999999999954,-27.0,-11.819999999999954,3.0
1429.0,-1.0,1.0,2.0,0.0,-1.0,1.0,-2.0,-13.38499999999997,-16.0,-27.0,-12.0,3.0
1430.0,-1.0,1.0,2.0,0.0,-1.0,1.0,-2.0,-13.949999999999871,-16.0,-27.0,-12.0,3.0
1431.0,-1.0,1.0,2.0,0.0,-1.0,1.0,-2.0,-14.0,-16.0,-27.0,-12.0,2.0
1432.0,-1.0,1.0,2.0,0.0,-1.0,1.0,-2.0,-14.0,-16.0,-27.159999999999783,-12.0,2.0
1433.0,-1.0,1.0,2.0,0.0,-1.0,1.0,-2.0,-14.0,-16.289999999999818,-28.0,-12.0,2.0
1434.0,-1.0,1.0,2.0,0.0,-1.0,1.0,-2.0,-14.0,-17.0,-28.0,-12.0,2.0
1435.0,-1.0,1.0,2.0,0.0,-1.0,1.0,-2.0,-14.0,-17.0,-28.0,-12.0,2.0
1436.0,-1.0,1.0,2.0,0.0,-1.0,1.0,-2.0,-14.0,-17.0,-28.0,-12.679999999999918,2.0
1437.0,-1.0,1.0,2.0,0.0,-1.0,1.0,-2.0,-14.0,-17.0,-28.404999999999976,-13.0,2.0
1438.0,-1.0,1.0,2.0,0.0,-1.0,1.0,-2.0,-14.0,-17.0,-28.96999999999987,-13.0,2.0
1439.0,-1.0,1.0,2.0,0.0,-1.0,1.0,-2.0,-14.534999999999881,-17.069999999999762,-29.0,-13.0,2.0
1440.0,-1.0,1.0,2.0,0.0,-1.0,1.0,-2.0,-15.0,-18.0,-29.0,-13.0,2.0
1441.0,-1.0,1.0,2.0,0.0,-1.0,1.0,-2.0,-15.0,-18.0,-29.164999999999914,-13.0,2.0
1442.0,-1.0,1.0,2.0,0.0,-1.0,1.0,-2.0,-15.0,-18.0,-29.72999999999993,-13.0,2.0
1443.0,-1.0,1.0,2.0,0.0,-1.0,1.0,-2.0,-15.0,-18.589999999999893,-30.0,-13.589999999999895,2.0
1444.0,-1.0,1.0,2.0,0.0,-1.0,1.0,-2.0,-15.0,-19.0,-30.0,-14.0,2.0
1445.0,-1.0,0.5750000000000193,2.0,0.0,-1.0,1.0,-2.0,-15.849999999999962,-19.0,-30.0,-14.0,2.0
1446.0,-1.0,0.010000000000128517,2.0,0.0,-1.0,1.0,-2.0,-16.0,-19.0,-30.979999999999745,-14.0,2.0
