time_ms,I,II,III,aVR,aVL,aVF,V1,V2,V3,V4,V5,V6
0.0,1.0,0.0,0.0,-0.5,0.5,0.0,-2.0,-8.0,-3.0,0.0,1.0,1.0
1.0,0.0,0.0,0.0,0.0,0.0,0.0,-2.0,-8.0,-4.5,0.0,1.0,1.0
2.0,0.0,0.0,0.0,0.0,0.0,0.0,-2.0,-8.0,-4.5,0.0,1.0,1.0
3.0,0.0,0.0,0.0,0.0,0.0,0.0,-2.0,-8.0,-4.5,0.0,1.0,1.0
4.0,0.0,0.0,0.0,0.0,0.0,0.0,-2.0,-8.0,-4.5,0.0,1.0,1.0
5.0,0.0,0.0,0.0,0.0,0.0,0.0,-2.0,-8.0,-4.5,0.0,1.0,1.0
6.0,0.0,0.0,0.0,0.0,0.0,0.0,-2.0,-8.0,-4.5,0.0,1.0,1.0
7.0,0.0,0.0,0.0,0.0,0.0,0.0,-2.0,-8.0,-4.5,0.0,1.0,1.0
8.0,0.0,0.0,0.0,0.0,0.0,0.0,-2.0,-8.0,-4.5,0.0,1.0,1.0
9.0,0.0,0.0,0.0,0.0,0.0,0.0,-2.0,-8.0,-4.5,0.0,1.0,1.0
10.0,0.0,0.0,0.0,0.0,0.0,0.0,-2.0,-8.0,-4.5,0.0,1.0,1.0
11.0,0.0,0.0,0.0,0.0,0.0,0.0,-2.0,-8.0,-4.5,0.0,1.0,1.0
12.0,0.0,0.0,0.0,0.0,0.0,0.0,-2.0,-8.0,-4.5,0.0,1.0,1.0
13.0,0.0,0.0,0.0,0.0,0.0,0.0,-2.0,-8.0,-4.5,0.0,1.0,1.0
14.0,0.0,0.0,0.0,0.0,0.0,0.0,-2.0,-8.0,-4.5,0.0,1.0,1.0
15.0,0.0,0.0,0.0,0.0,0.0,0.0,-2.0,-8.0,-4.5,0.0,1.0,1.0
16.0,0.0,0.0,0.0,0.0,0.0,0.0,-2.0,-8.0,-4.5,0.0,1.0,1.0
17.0,0.20999999999999902,0.0,0.0,0.0,0.0,0.0,-2.0,-8.0,-4.5,0.0,1.0,1.0
18.0,1.0,0.0,0.0,0.0,0.0,0.0,-2.3399999999999976,-8.0,-4.5,0.0,1.0,1.0
19.0,1.0,0.0,0.0,0.0,0.0,0.0,-3.0,-8.0,-4.265000000000001,0.0,1.0,1.0
20.0,1.0,0.29999999999999916,0.0,0.0,0.0,0.0,-3.0,-8.0,-3.700000000000001,0.0,1.0,1.0
21.0,1.0,0.8649999999999992,0.0,0.0,0.0,0.0,-3.0,-8.0,-3.5,0.0,1.0,1.0
22.0,1.0,1.0,0.0,0.0,0.0,0.0,-3.0,-8.0,-3.5,0.0,1.0,1.0
23.0,1.0,0.01000000000000223,0.0,0.0,0.0,0.0,-2.0100000000000025,-8.0,-3.5,0.0,1.0,1.0
24.0,0.9400000000000006,0.0,0.0,0.0,0.0,0.0,-2.0,-8.0,-3.5,0.0,1.0,1.0
25.0,0.3750000000000015,0.0,0.0,0.0,0.0,0.0,-2.0,-8.0,-3.5,0.0,1.0,1.0
26.0,0.0,0.0,0.0,0.0,0.0,0.0,-2.0,-8.0,-3.5,0.0,1.0,1.0
27.0,0.2549999999999981,0.0,0.0,0.0,0.0,0.0,-2.0,-8.0,-3.5,0.0,1.0,1.0
28.0,0.819999999999999,0.0,0.0,0.0,0.0,0.0,-2.0,-8.0,-3.5,0.0,0.680000000000001,1.0
29.0,1.0,0.0,0.0,0.0,0.0,0.0,-2.0,-8.0,-3.5,0.0,0.11500000000000182,1.0
30.0,1.0,0.0,0.0,0.0,0.0,0.0,-2.0,-7.100000000000003,-3.5,0.0,0.0,1.0
31.0,1.0,0.0,0.0,0.0,0.0,0.0,-3.0,-7.0,-3.5,0.0,0.0,1.0
32.0,1.0,0.0,0.0,0.0,0.0,0.0,-3.0,-7.0,-3.5,0.0,0.0,1.0
33.0,1.0,0.0,0.0,0.0,0.0,0.0,-3.0,-7.0,-3.5,0.0,0.0,1.0
34.0,1.0,0.0,0.0,0.0,0.0,0.0,-3.0,-7.0,-3.5,0.0,0.0,1.0
35.0,1.0,0.0,0.0,-0.5499999999999952,0.0,0.0,-3.0,-7.0,-3.5,0.0,0.0,1.0
36.0,1.0,0.0,0.0,-1.0,0.0,0.0,-3.0,-7.0,-3.5,0.0,0.0,0.6600000000000011
37.0,1.0,0.0,0.0,-1.0,0.0,0.0,-3.0,-7.0,-3.5,0.0,0.0,0.0950000000000013
38.0,1.0,0.46999999999999725,0.0,-1.0,0.0,0.0,-3.0,-7.0,-3.5,0.0,0.0,0.0
39.0,1.0,1.0,0.0,-1.0,0.0,0.0,-3.0,-7.0,-3.5,0.0,0.0,0.0
40.0,1.0,1.0,0.0,-1.0,0.0,0.0,-3.0,-7.0,-3.5,0.0,0.0,0.0
41.0,1.0,1.0,0.0,-1.0,0.0,0.0,-3.0,-7.0,-3.5,0.0,0.0,0.0
42.0,1.0,0.7700000000000027,0.0,-1.0,0.0,0.0,-3.0,-7.0,-3.5,0.0,0.0,0.0
43.0,1.0,0.20500000000000196,0.0,-1.0,0.5899999999999961,0.0,-3.0,-7.0,-3.5,0.0,0.0,0.0
44.0,1.0,0.0,0.0,-1.0,1.0,0.0,-3.0,-7.0,-3.5,0.0,0.0,0.0
45.0,1.0,0.0,0.0,-1.0,1.0,0.0,-3.0,-7.0,-2.650000000000003,0.0,0.0,0.0
46.0,1.0,0.0,0.0,-1.0,1.0,0.0,-3.0,-7.0,-2.5,0.0,0.0,0.0
47.0,1.0,0.0,0.0,-1.0,1.0,0.0,-3.0,-6.445000000000003,-2.5,0.0,0.0,0.0
48.0,1.0,0.0,0.0,-1.0,1.0,0.0,-3.0,-6.0,-2.5,0.0,0.0,0.0
49.0,1.0,0.0,0.0,-1.0,1.0,0.0,-3.0,-6.0,-2.5,0.0,0.0,0.0
50.0,1.0,0.0,0.0,-1.0,1.0,0.0,-3.0,-6.0,-2.5,0.0,0.0,0.0
51.0,1.0,0.0,0.0,-1.0,1.0,0.0,-3.0,-6.0,-2.5,0.0,0.0,0.0
52.0,1.0,0.0,0.0,-1.0,1.0,0.0,-3.0,-6.0,-2.5,0.0,0.0,0.0
53.0,1.0,0.0,0.0,-1.0,1.0,0.0,-3.0,-6.0,-2.5,0.0,0.0,0.0
54.0,1.0,0.0,0.0,-1.0,1.0,0.0,-3.0,-6.0,-2.5,0.0,0.0,0.0
55.0,1.0,0.0,0.0,-1.0,1.0,0.0,-3.0,-6.0,-2.5,0.0,0.0,0.0
56.0,1.0,0.0,0.0,-1.0,1.0,0.0,-3.0,-6.0,-2.5,0.0,0.0,0.0
57.0,1.0,0.0,0.0,-1.0,1.0,0.0,-3.0,-6.0,-2.5,0.0,0.0,0.0
58.0,1.0,0.26999999999999647,0.0,-1.0,1.0,0.0,-3.0,-6.0,-2.5,0.0,0.0,0.0
59.0,1.0,0.8349999999999977,0.0,-1.0,1.0,0.0,-3.0,-6.0,-2.5,0.0,0.0,0.0
60.0,1.0,1.0,0.0,-1.0,1.0,0.0,-3.0,-6.0,-2.5,0.0,0.0,0.0
61.0,1.0,1.0,0.0,-1.0,1.0,0.0,-3.0,-6.0,-2.5,0.0,0.0,0.0
62.0,1.0,0.9700000000000051,0.0,-1.0,1.0,0.0,-2.94000000000001,-5.0,-2.5,0.0,0.0,0.0
63.0,1.0,0.40500000000000275,0.0,-1.0,1.0,0.0,-2.0,-5.0,-2.3100000000000054,0.0,0.0,0.0
64.0,1.0,0.0,0.0,-1.0,1.0,0.0,-2.0,-5.0,-1.5,0.0,0.0,0.0
65.0,1.0,0.0,0.0,-1.0,0.5500000000000113,0.0,-2.0,-5.0,-1.5,0.0,0.0,0.0
66.0,1.0,0.0,0.0,-1.0,0.0,0.0,-2.0,-5.0,-1.5,0.0,0.0,0.0
67.0,1.0,0.0,0.0,-1.0,0.0,0.0,-2.0,-5.0,-1.5,0.0,0.0,0.0
68.0,1.0,1.539999999999989,0.0,-1.0,0.0,0.41999999999999804,-1.5800000000000018,-3.1333333333333364,2.8999999999999817,0.41999999999999804,0.41999999999999804,1.2599999999999942
69.0,0.5150000000000035,6.959117647058794,1.6628571428571253,-1.6466666666666667,0.0,1.7933333333333197,-1.0150000000000035,3.311666666666625,19.02714285714275,2.148999999999991,2.148999999999991,5.476999999999967
70.0,-0.09999999999999036,16.524999999999956,4.969999999999981,-3.0999999999999903,-1.6499999999999855,4.969999999999981,1.0999999999999903,10.079999999999965,34.936923076923065,5.23333333333331,4.969999999999981,13.464285714285674
71.0,-1.0,20.232500000000027,6.614999999999994,-4.0,-3.0,6.614999999999994,2.0,12.271000000000027,34.237000000000094,7.256666666666667,6.385000000000006,16.616666666666685
72.0,-1.0,17.060000000000038,6.820000000000005,-3.6400000000000095,-3.0,6.820000000000005,1.5200000000000147,9.240000000000034,23.860000000000113,7.0,6.0,14.133333333333363
73.0,-1.0,11.805000000000012,6.0100000000000025,-3.0,-2.5100000000000025,6.0100000000000025,0.3400000000000039,4.795000000000011,9.88500000000003,6.346666666666672,5.5100000000000025,9.550000000000011
74.0,-0.3800000000000052,5.900000000000025,4.880000000000005,-2.3800000000000052,-2.0,4.880000000000005,-0.3099999999999974,0.02000000000002089,-2.579999999999953,4.943333333333341,4.380000000000005,4.520000000000021
75.0,0.0,1.5000000000000306,3.750000000000008,-2.0,-1.250000000000008,3.750000000000008,-1.249999999999992,-3.749999999999976,-9.74999999999996,4.125000000000004,3.250000000000008,1.2500000000000222
76.0,0.0,0.08000000000000784,3.0600000000000054,-1.120000000000011,-1.0,3.0600000000000054,-1.9399999999999946,-5.819999999999983,-13.199999999999973,3.1200000000000108,3.0,0.08000000000000784
77.0,0.0,-1.5149999999999795,1.9900000000000138,-1.0,-0.4950000000000068,1.9950000000000068,-2.5049999999999932,-7.344999999999979,-14.5,2.4950000000000068,1.9950000000000068,-1.3449999999999793
78.0,0.0,-3.1399999999999992,0.9300000000000004,-1.0,0.0,1.4300000000000004,-3.0,-8.57,-14.43,1.8600000000000008,1.4300000000000004,-2.57
79.0,0.26999999999999647,-4.0,0.36500000000000177,-0.7300000000000035,0.0,0.7300000000000035,-3.0,-9.0,-13.730000000000004,1.0,1.0,-3.0
80.0,1.0,-4.0,0.0,0.0,0.0,0.0,-3.0,-9.0,-12.600000000000007,1.0,0.8000000000000033,-3.0
81.0,1.0,-4.0,0.0,0.0,0.0,0.0,-3.5299999999999905,-9.0,-11.381666666666675,0.4700000000000094,0.2350000000000047,-3.0
82.0,1.0,-4.0,0.0,0.0,0.0,0.0,-4.0,-9.0,-9.953333333333347,0.0,0.0,-3.0
83.0,1.0,-4.0,0.0,0.0,0.0,0.0,-4.0,-9.0,-8.710000000000015,0.0,0.0,-3.0
84.0,1.0,-4.0,-0.45999999999999835,0.0,0.0,0.0,-4.0,-9.0,-7.886666666666665,0.0,0.0,-3.0
85.0,1.0,-3.4750000000000023,-1.0,0.0,1.0,0.0,-3.4750000000000023,-8.475000000000003,-6.475000000000002,0.0,0.0,-2.0
86.0,1.0,-3.0,-1.0,0.0,1.0,-0.08999999999999614,-3.0,-8.0,-5.820000000000007,0.0,0.0,-2.0
87.0,1.0,-2.6900000000000106,-1.0,0.0,1.0,-0.6549999999999947,-3.0,-7.69000000000001,-4.845000000000005,0.0,0.0,-1.6900000000000106
88.0,1.0,-2.0,-1.0,0.0,1.0,-1.0,-3.0,-7.0,-4.5,0.0,0.0,-1.0
89.0,1.0,-2.0,-1.0,0.0,1.0,-1.0,-3.0,-7.0,-3.9300000000000166,0.0,0.0,-1.0
90.0,0.30000000000000804,-1.650000000000004,-1.0,0.0,1.0,-1.0,-3.0,-7.0,-3.5,0.0,0.0,-1.0
91.0,0.0,-1.085000000000003,-1.0,0.0,1.0,-1.0,-3.0,-7.0,-3.5,0.0,0.0,-0.17000000000000615
92.0,0.0,-1.0,-1.0,0.0,1.0,-1.0,-3.0,-6.040000000000009,-3.5,0.0,0.0,0.0
93.0,0.0899999999999881,-1.0,-1.0,0.0,1.0,-1.0,-3.0,-6.0,-3.5,0.0,0.0,0.0
94.0,1.0,-0.7800000000000148,-1.0,0.0,1.0,-1.0,-3.0,-6.0,-3.5,0.0,0.0,0.0
95.0,1.0,0.0,-1.0,0.0,1.0,-1.0,-3.0,-6.0,-3.5,0.0,0.0,0.0
96.0,1.0,0.0,-1.0,0.0,1.0,-1.0,-3.0,-6.0,-3.5,0.0,0.0,0.0
97.0,1.0,0.0,-1.0,0.0,1.0,-1.0,-3.0,-6.0,-3.5,0.0,0.0,0.0
98.0,1.0,0.0,-1.0,0.0,1.0,-1.0,-3.0,-6.0,-3.5,0.0,0.0,0.0
99.0,1.0,0.0,-1.0,0.0,1.0,-1.0,-3.0,-6.0,-3.5,0.0,0.0,0.0
100.0,1.0,0.0,-1.0,0.0,1.0,-1.0,-3.0,-6.0,-3.5,0.0,0.0,0.0
101.0,1.0,0.0,-1.0,0.0,1.0,-1.0,-3.129999999999983,-7.0,-3.5,0.0,0.0,0.0
102.0,1.0,0.0,-1.0,0.0,1.0,-1.0,-4.0,-7.0,-3.5,0.0,0.0,0.0
103.0,1.0,0.0,-1.0,0.0,1.0,-1.0,-4.0,-7.0,-3.8899999999999912,0.0,0.0,0.0
104.0,1.0,0.0,-1.0,0.0,1.0,-1.0,-4.0,-7.0,-4.5,0.0,0.0,0.0
105.0,1.0,0.0,-1.0,0.0,1.0,-1.0,-4.0,-7.0,-4.5,0.0,0.0,0.0
106.0,1.0,0.0,-1.0,0.0,1.0,-1.0,-4.0,-7.0,-4.5,0.0,0.0,0.0
107.0,1.0,0.0,-1.0,0.0,1.0,-1.0,-4.0,-7.0,-4.5,0.0,0.0,0.0
108.0,1.0,0.0,-1.0,0.0,1.0,-1.0,-4.0,-7.039999999999993,-5.019999999999996,0.0,0.0,0.0
109.0,1.0,0.0,-1.0,0.0,1.0,-1.0,-4.0,-8.0,-5.5,0.0,0.0,0.0
110.0,1.0,0.0,-1.0,0.0,1.0,-0.7000000000000128,-4.0,-8.0,-5.5,0.0,0.0,0.0
111.0,1.0,0.0,-1.0,0.0,1.0,0.0,-4.0,-8.0,-5.5,0.0,0.0,0.0
112.0,1.0,0.0,-1.0,0.0,1.0,0.0,-4.0,-8.0,-5.5,0.0,0.0,0.0
113.0,0.6550000000000052,0.0,-1.0,0.0,1.0,0.0,-3.3100000000000103,-8.0,-5.5,0.0,0.0,0.0
114.0,0.09000000000000419,0.0,-1.0,0.0,1.0,0.0,-3.0,-8.0,-5.909999999999996,0.0,0.0,0.0
115.0,0.0,0.0,-1.0,0.0,1.0,0.0,-3.0,-8.0,-6.474999999999994,0.0,0.0,0.0
116.0,0.0,0.0,-1.0,0.0,1.0,0.0,-3.0,-8.0,-6.5,0.0,0.0,0.0
117.0,0.0,0.0,-1.0,0.0,1.0,0.0,-2.8950000000000085,-8.0,-6.6049999999999915,-0.10499999999999148,0.0,0.0
118.0,0.0,0.0,-1.0,0.0,0.6600000000000145,0.0,-2.330000000000007,-8.0,-7.169999999999993,-0.6699999999999928,0.0,0.0
119.0,0.0,0.0,-0.7650000000000035,0.0,0.0,0.0,-2.0,-8.0,-7.5,-1.0,0.0,0.0
120.0,0.0,0.0,-0.20000000000000484,0.0,0.0,0.0,-2.0,-8.0,-8.09999999999999,-1.0,0.0,0.0
121.0,0.0,0.0,0.0,0.0,0.0,0.0,-1.2700000000000125,-8.0,-8.5,-1.0,0.0,0.0
122.0,-0.8599999999999846,0.0,0.0,0.0,0.0,0.0,-1.0,-8.0,-9.359999999999985,-1.0,0.0,0.0
123.0,-1.0,0.0,0.0,0.0,0.0,0.0,-1.0,-8.98999999999998,-9.99499999999999,-1.4949999999999908,0.0,-0.4949999999999908
124.0,-1.5599999999999903,0.0,0.0,0.0,0.0,0.0,-0.44000000000000966,-9.0,-10.619999999999981,-2.0,-0.11999999999998072,-1.0
125.0,-2.124999999999996,-0.24999999999999195,0.0,0.0,0.0,0.0,0.0,-9.249999999999991,-11.624999999999996,-2.124999999999996,-1.0,-1.124999999999996
126.0,-2.6899999999999946,-1.0,0.0,0.0,0.0,0.0,0.0,-10.0,-12.189999999999994,-2.6899999999999946,-1.0,-1.6899999999999946
127.0,-3.2549999999999932,-1.0,0.0,0.25499999999999307,0.0,0.0,0.0,-10.0,-13.009999999999986,-3.0,-1.0,-2.0
128.0,-3.8199999999999914,-1.0,0.0,0.8199999999999916,-0.6399999999999832,0.0,0.0,-10.639999999999983,-13.819999999999991,-3.3199999999999914,-1.0,-2.3199999999999914
129.0,-4.76999999999998,-1.7699999999999805,0.0,1.0,-1.0,0.0,0.7699999999999804,-11.384999999999991,-14.76999999999998,-3.88499999999999,-1.3849999999999902,-2.88499999999999
130.0,-5.0,-2.0,0.8999999999999775,1.0,-1.0,0.0,1.0,-11.949999999999989,-15.449999999999989,-4.0,-1.9499999999999886,-3.0
131.0,-6.014999999999987,-2.0149999999999872,1.0,1.0299999999999747,-1.0299999999999747,0.0,1.0299999999999747,-12.529999999999974,-16.529999999999976,-5.014999999999987,-2.0,-4.0
132.0,-6.5799999999999885,-2.5799999999999885,1.0,2.0,-2.0,0.0,2.0,-13.659999999999977,-17.659999999999975,-5.5799999999999885,-2.0799999999999885,-4.159999999999977
133.0,-7.290000000000001,-3.0,1.1450000000000005,2.0,-2.1450000000000005,0.0,2.1450000000000005,-14.645,-18.79,-6.1450000000000005,-2.6450000000000005,-5.1450000000000005
134.0,-8.0,-3.0,1.709999999999999,2.419999999999998,-2.709999999999999,0.0,2.709999999999999,-15.419999999999998,-19.919999999999998,-6.709999999999999,-3.0,-5.709999999999999
135.0,-8.274999999999997,-3.2749999999999977,2.0,3.0,-3.0,0.0,3.0,-16.275,-20.5,-7.274999999999998,-3.2749999999999977,-6.0
136.0,-9.179999999999993,-3.8399999999999963,2.0,3.0,-3.0,0.0,3.3399999999999963,-16.839999999999996,-21.179999999999993,-7.839999999999996,-3.8399999999999963,-6.679999999999993
137.0,-9.904999999999994,-4.0,2.4049999999999945,3.4049999999999945,-3.8099999999999894,0.0,3.9049999999999945,-17.809999999999988,-21.5,-8.404999999999994,-4.0,-7.404999999999995
138.0,-10.939999999999987,-4.939999999999986,2.969999999999993,3.969999999999993,-4.0,0.0,4.0,-18.0,-22.439999999999987,-8.969999999999994,-4.0,-7.9699999999999935
139.0,-11.069999999999984,-5.0,3.0,4.034999999999992,-4.069999999999983,0.0,4.534999999999992,-19.034999999999993,-22.5,-9.534999999999991,-5.0,-8.069999999999984
140.0,-12.09999999999999,-5.199999999999981,3.0,4.599999999999991,-5.0,0.0,5.099999999999991,-19.59999999999999,-22.5,-10.09999999999999,-5.099999999999991,-9.0
141.0,-12.664999999999988,-6.0,3.329999999999978,5.0,-5.0,0.0,5.6649999999999885,-20.0,-22.829999999999977,-10.664999999999988,-5.6649999999999885,-9.329999999999977
142.0,-13.229999999999988,-6.229999999999987,4.0,5.459999999999975,-5.459999999999975,0.0,6.0,-20.459999999999976,-23.040000000000024,-11.0,-6.0,-10.0
143.0,-13.794999999999986,-6.794999999999986,4.0,6.0,-6.0,0.0,6.294999999999986,-21.0,-22.5,-11.589999999999971,-6.0,-10.0
144.0,-14.719999999999992,-7.0,4.0,6.359999999999996,-6.359999999999996,0.0,6.859999999999996,-21.0,-22.5,-12.0,-6.719999999999993,-10.359999999999996
145.0,-15.0,-7.849999999999998,4.424999999999999,6.924999999999999,-6.924999999999999,0.0,7.0,-21.0,-21.650000000000002,-12.0,-7.0,-10.924999999999999
146.0,-15.979999999999995,-8.0,4.9899999999999975,7.0,-7.0,0.0,7.0,-21.0,-20.520000000000003,-12.0,-7.0,-11.0
147.0,-16.0,-8.0,5.0,7.554999999999996,-7.554999999999996,0.0,8.0,-20.945000000000004,-19.65000000000001,-13.0,-7.0,-11.0
148.0,-16.0,-8.23999999999999,5.0,8.0,-8.0,0.0,8.0,-20.380000000000006,-17.846666666666682,-13.0,-7.2399999999999896,-11.0
149.0,-16.0,-9.0,5.0,8.369999999999987,-8.0,0.0,8.0,-19.630000000000013,-16.216666666666686,-13.0,-8.0,-11.0
150.0,-16.249999999999993,-9.0,5.0,9.0,-8.249999999999991,0.0,8.0,-19.0,-14.500000000000021,-12.500000000000016,-8.0,-11.0
151.0,-16.81499999999999,-9.0,5.314999999999991,9.0,-8.81499999999999,0.0,8.0,-18.37000000000002,-12.678333333333367,-12.0,-8.0,-10.68500000000001
152.0,-16.240000000000023,-9.0,5.879999999999989,9.0,-9.0,0.0,8.0,-16.9866666666667,-10.480000000000043,-12.0,-8.0,-10.120000000000012
153.0,-16.0,-8.110000000000024,6.0,9.0,-9.0,0.0,8.0,-15.628333333333362,-8.22000000000005,-11.110000000000024,-8.0,-10.0
154.0,-16.0,-8.0,6.0,9.019999999999973,-9.0,0.0,8.0,-14.980000000000027,-6.140000000000041,-10.990000000000014,-7.980000000000028,-9.980000000000027
155.0,-16.0,-8.0,6.0,10.0,-9.074999999999987,0.0,8.0,-13.850000000000026,-4.583333333333373,-10.425000000000013,-7.0,-9.0
156.0,-15.72,-7.86,6.0,10.0,-9.639999999999999,0.0,8.0,-12.72,-2.793333333333337,-9.72,-7.0,-8.72
157.0,-15.0,-7.295000000000002,6.0,10.0,-10.0,0.0,8.0,-11.590000000000003,-1.2866666666666693,-9.0,-7.0,-8.0
158.0,-15.0,-7.0,6.0,10.0,-10.0,0.0,8.0,-10.460000000000008,-0.23000000000000353,-8.460000000000008,-7.0,-8.0
159.0,-14.33000000000001,-7.0,6.0,10.0,-10.0,0.0,7.665000000000005,-9.33000000000001,0.6699999999999899,-7.665000000000005,-6.665000000000005,-7.33000000000001
160.0,-14.0,-6.600000000000007,6.0,10.0,-10.0,0.0,7.100000000000007,-8.200000000000014,1.933333333333322,-7.100000000000007,-6.100000000000007,-7.0
161.0,-14.0,-6.035000000000008,6.0,10.0,-10.0,0.0,7.0,-7.070000000000016,3.406666666666646,-6.070000000000016,-6.0,-6.070000000000016
162.0,-13.0,-6.0,6.0,10.0,-10.0,0.0,6.9700000000000095,-6.440000000000019,4.059999999999981,-5.440000000000019,-5.940000000000019,-6.0
163.0,-13.0,-5.905000000000011,6.0,9.810000000000022,-10.0,0.0,6.405000000000011,-5.310000000000022,5.094999999999989,-4.405000000000011,-5.0,-5.810000000000022
164.0,-12.680000000000025,-5.340000000000012,6.0,9.0,-9.840000000000012,0.0,6.0,-4.340000000000012,5.819999999999975,-3.6800000000000246,-5.0,-5.0
165.0,-12.0,-5.0,6.0,9.0,-9.275000000000013,0.0,5.550000000000027,-3.5500000000000274,6.5,-2.5500000000000274,-4.550000000000027,-4.550000000000027
166.0,-12.0,-5.0,6.0,9.0,-9.0,0.0,5.0,-3.0,7.07999999999997,-2.0,-4.0,-4.0
167.0,-11.290000000000033,-4.290000000000033,6.0,9.0,-9.0,0.0,5.0,-3.0,7.5,-1.2900000000000331,-4.0,-4.0
168.0,-11.0,-4.0,6.0,9.0,-9.0,0.0,4.160000000000009,-2.160000000000009,7.9199999999999955,-0.16000000000000902,-3.160000000000009,-3.160000000000009
169.0,-11.0,-4.0,6.0,9.0,-9.0,0.0,4.0,-2.0,8.484999999999996,0.0,-3.0,-3.0
170.0,-10.0,-3.9500000000000046,6.0,8.450000000000005,-9.0,0.0,2.9500000000000046,-3.0,8.40000000000001,0.09999999999999036,-2.9000000000000097,-2.9000000000000097
171.0,-9.770000000000012,-3.3850000000000064,6.0,8.0,-9.0,0.0,2.3850000000000064,-3.0,7.5,1.1149999999999938,-2.0,-2.0
172.0,-9.0,-3.0,6.0,8.0,-8.820000000000007,0.0,1.6400000000000154,-3.0,7.5,1.6799999999999922,-1.8200000000000078,-2.0
173.0,-9.0,-3.0,6.0,8.0,-8.25500000000001,0.0,0.5100000000000183,-3.4899999999999816,7.5,2.4899999999999816,-1.2550000000000092,-1.5100000000000184
174.0,-8.38000000000002,-3.0,6.0,7.69000000000001,-8.0,0.0,0.0,-4.0,7.5,3.0,-1.0,-1.0
175.0,-8.0,-2.250000000000024,6.0,7.125000000000012,-8.0,0.0,0.0,-4.0,7.125000000000012,3.749999999999976,-1.0,-1.0
176.0,-7.120000000000027,-2.0,6.0,7.0,-8.0,0.0,-0.43999999999998646,-4.0,6.560000000000014,4.439999999999986,-0.12000000000002709,-1.0
177.0,-6.995000000000015,-2.0,5.0,7.0,-7.9900000000000295,0.0,-1.00999999999997,-4.0,6.5,5.0,0.0,-0.995000000000015
178.0,-6.430000000000017,-2.0,5.0,6.860000000000033,-7.0,0.0,-2.0699999999999834,-4.0,6.5,5.139999999999967,0.0,-0.43000000000001637
179.0,-5.8650000000000135,-2.0,5.0,6.0,-7.0,0.0,-2.6349999999999865,-4.0,6.5,6.0,0.0,0.0
180.0,-5.300000000000003,-1.6000000000000065,5.0,6.0,-7.0,0.0,-3.3999999999999937,-4.0,6.5,6.399999999999993,0.0,0.0
181.0,-5.0,-1.0,5.0,6.0,-6.4700000000000095,0.0,-4.264999999999995,-3.7350000000000048,6.5,7.0,0.0,0.0
182.0,-4.340000000000012,-1.0,4.340000000000012,5.340000000000012,-6.0,0.0,-4.829999999999994,-3.170000000000006,6.5,7.0,0.0,0.0
183.0,-4.0,-1.0,4.0,5.0,-6.0,0.0,-5.789999999999985,-2.6050000000000075,6.5,7.789999999999985,0.3949999999999924,0.0
184.0,-3.540000000000009,-1.0,4.0,5.0,-5.540000000000009,0.0,-6.459999999999991,-2.040000000000009,6.5,8.0,0.959999999999991,0.0
185.0,-3.0,-1.0,4.0,4.97500000000001,-5.0,0.0,-7.02499999999999,-1.0,6.5,8.02499999999999,1.0,0.0
186.0,-2.9100000000000117,-1.0,3.820000000000024,4.410000000000012,-5.0,0.0,-7.589999999999988,-1.0,6.5,8.589999999999987,1.0,0.0
187.0,-2.3450000000000135,-1.0,3.0,4.0,-4.845000000000013,0.0,-8.309999999999974,-0.6900000000000267,6.5,9.0,1.1549999999999867,0.0
188.0,-2.0,-1.0,3.0,4.0,-4.2800000000000145,0.0,-9.0,0.0,6.5,9.0,1.719999999999985,0.4399999999999704
189.0,-1.7150000000000163,-0.7150000000000163,3.0,4.0,-4.0,0.0,-9.569999999999968,0.0,6.5,9.0,2.0,1.0
190.0,-1.1500000000000177,-0.15000000000001767,3.0,3.3000000000000353,-4.0,0.0,-10.699999999999964,0.0,6.150000000000018,9.699999999999964,2.0,1.0
191.0,-1.0,0.0,2.1700000000000115,3.0,-3.1700000000000115,0.0,-11.414999999999994,0.0,5.585000000000006,10.0,2.0,1.0
192.0,-0.04000000000000903,0.0,2.0,3.0,-3.0,0.0,-11.979999999999995,0.0,5.5,10.0,2.0,1.0
193.0,0.0,0.0,2.0,2.9100000000000117,-3.0,0.0,-13.0,0.0,5.455000000000006,10.0,2.0899999999999883,2.0
194.0,0.0,0.0,1.8900000000000075,2.0,-2.780000000000015,0.0,-13.219999999999985,0.0,4.890000000000008,10.0,3.0,2.0
195.0,0.0,0.0,1.3250000000000088,2.0,-2.0,0.0,-14.174999999999992,0.0,4.5,10.0,3.0,2.0
196.0,0.4799999999999794,0.0,1.0,2.0,-2.0,0.0,-14.73999999999999,0.0,4.020000000000021,10.0,3.0,2.0
197.0,1.0,0.0,1.0,1.3900000000000237,-1.6950000000000118,0.0,-15.304999999999989,0.0,3.5,10.0,3.0,2.0
198.0,1.3699999999999868,0.0,1.0,1.0,-1.1300000000000132,0.0,-15.869999999999987,0.0,3.130000000000013,10.0,3.0,2.7399999999999736
199.0,1.9349999999999854,0.0,0.13000000000002931,1.0,-1.0,0.0,-16.0,0.0,2.5650000000000146,10.0,3.0,3.0
200.0,2.0,0.0,0.0,1.0,-1.0,0.0,-16.999999999999968,0.0,2.5,10.0,3.0,3.0
201.0,2.5649999999999826,1.0,0.0,0.0,0.0,0.0,-17.0,0.0,1.9350000000000176,10.0,3.0649999999999826,3.0
202.0,3.0,1.0,0.0,0.0,0.0,0.0,-17.129999999999985,0.0,1.3700000000000148,10.0,3.6299999999999852,3.1299999999999852
203.0,3.0,1.0,0.0,0.0,0.0,0.0,-17.694999999999997,-0.3899999999999913,0.8050000000000044,10.0,4.0,3.694999999999996
204.0,3.0,1.0,0.0,0.0,0.0,0.0,-18.0,-1.0,0.5,10.0,4.0,4.0
205.0,3.0,1.0,0.0,0.0,0.0,0.0,-17.350000000000016,-1.0,0.5,10.0,4.0,4.0
206.0,3.3899999999999912,1.0,0.0,0.0,0.0,0.0,-17.0,-0.2200000000000174,0.5,9.220000000000017,4.0,4.0
207.0,3.95499999999999,1.0,0.0,0.0,0.0,0.0,-17.0,0.0,0.5,9.0,4.0,4.0
208.0,4.0,1.0,0.0,0.0,0.039999999999976873,0.0,-16.960000000000022,0.0,0.5,9.0,4.0,4.0
209.0,4.0,1.0,0.0,-0.16999999999997398,1.0,0.0,-15.915000000000013,0.0,0.5,9.0,4.0,4.0
210.0,4.0,1.0,-0.29999999999997107,-1.0,1.0,0.0,-15.350000000000014,0.0,0.5,8.850000000000014,4.0,4.0
211.0,4.0,1.0,-1.0,-1.0,1.0,0.0,-14.570000000000032,0.0,0.5,8.285000000000016,4.0,4.0
212.0,4.0,1.0,-1.0,-1.0,1.0,0.0,-14.0,0.0,0.5,8.0,4.0,4.0
213.0,4.0,1.0,-1.0,-1.0,1.0,0.0,-13.310000000000038,0.0,0.5,8.0,4.0,4.0
214.0,4.0,1.409999999999993,-1.0,-1.0,1.0,0.0,-12.590000000000007,0.0,0.5,8.0,4.0,4.0
215.0,3.5250000000000057,1.9749999999999943,-1.0,-1.0,1.0,0.0,-11.550000000000011,0.0,0.5,8.0,4.0,4.0
216.0,3.0,2.0,-1.0,-1.0,1.0,0.0,-10.960000000000008,0.07999999999998586,1.5,7.0,4.0,4.0
217.0,3.0,2.0,-1.0,-1.2099999999999829,1.0,0.0,-10.395000000000008,1.0,1.5,7.0,4.0,4.0
218.0,3.0,2.0,-1.0,-2.0,1.33999999999998,0.0,-9.66000000000002,1.0,1.5,7.0,4.0,4.0
219.0,3.0,2.0,-1.0,-2.0,2.0,0.0,-8.530000000000022,1.0,1.5,7.0,4.0,4.0
220.0,3.0,2.0,-1.0,-2.0,2.0,0.0,-8.0,1.0,2.0999999999999743,7.0,4.0,4.0
221.0,3.0,2.0,-1.0,-2.0,2.0,0.0,-7.635000000000014,1.7299999999999713,2.5,6.270000000000029,4.0,4.0
222.0,3.0,2.0,-1.0,-2.0,2.0,0.0,-7.070000000000015,2.0,2.5,6.0,4.0,4.0
223.0,3.0,2.0,-1.0,-2.0,2.0,0.0,-6.010000000000034,2.0,2.994999999999983,6.0,4.0,4.0
224.0,3.0,2.0,-1.0,-2.0,2.0,0.0,-6.0,2.0,3.5,6.0,4.0,4.0
225.0,3.0,2.124999999999984,-0.7500000000000321,-2.0,1.875000000000016,0.0,-5.750000000000032,2.249999999999968,3.5,6.0,4.0,4.0
226.0,3.0,2.6899999999999946,0.0,-2.0,1.3100000000000054,0.0,-5.0,3.0,3.6899999999999946,6.0,3.6200000000000108,4.0
227.0,3.0,3.0,0.0,-2.0,1.0,0.0,-5.0,3.0,4.254999999999993,6.0,3.0,4.0
228.0,3.0,3.0,0.0,-2.0,1.0,0.0,-4.360000000000017,3.0,4.5,6.0,3.0,4.0
229.0,3.0,3.0,0.0,-2.0,1.0,0.0,-4.0,3.0,4.5,5.61500000000001,3.0,4.0
230.0,3.0,3.0,0.0,-2.0,1.0,0.0,-4.0,3.4499999999999886,4.5,5.050000000000011,3.0,4.0
231.0,2.5149999999999872,3.0,0.0,-2.0,1.0,0.5149999999999874,-3.0,4.0,4.5,5.0,3.0,4.0
232.0,3.0,3.0,0.0,-2.0,1.0,1.0,-3.0,4.0,4.5,5.0,3.0,4.0
233.0,3.0,3.0,0.0,-2.0,1.0,1.0,-3.0,4.0,4.5,5.0,3.0,4.0
234.0,3.0,3.0,0.0,-2.0,1.0,1.0,-3.0,4.0,4.5,5.0,3.0,4.0
235.0,3.0,3.0,0.0,-2.0,1.0,1.0,-2.450000000000037,4.0,4.5,5.0,3.0,4.0
236.0,3.0,3.0,0.0,-2.33999999999998,1.0,1.0,-2.0,4.0,4.5,5.0,3.0,4.0
237.0,3.0,3.0,0.0,-2.904999999999992,1.0,1.0,-2.0,4.0,4.5,5.0,3.0,4.0
238.0,3.0,3.0,0.0,-3.0,1.0,1.0,-2.0,4.0,4.5,5.0,3.0,4.0
239.0,3.0,3.0,0.0,-3.0,1.0,1.0,-2.0,4.069999999999983,4.5,5.0,3.0,4.0
240.0,3.0,3.0,0.0,-3.0,1.0,1.0,-2.0,5.0,4.5,5.0,3.0,4.0
241.0,3.0,3.0,0.0,-3.0,1.0,1.0,-2.0,5.0,4.829999999999978,5.0,3.0,4.0
242.0,3.0,3.0,0.0,-3.0,1.0,1.0,-2.0,5.0,5.5,5.0,3.0,4.0
243.0,3.0,3.0,0.0,-3.0,1.0,1.0,-2.0,5.0,5.5,5.0,3.0,4.0
244.0,3.0,3.0,0.0,-3.0,1.0,1.0,-1.6400000000000154,5.0,5.5,5.0,3.0,4.0
245.0,3.0,3.0,0.0,-3.0,1.0,1.0,-1.0750000000000168,5.0,5.5,4.150000000000034,3.0,4.0
246.0,3.0,3.0,0.0,-3.0,1.0,1.0,-1.0,5.0,5.5,4.0,3.0,4.0
247.0,3.0,3.94500000000002,0.0,-3.0,1.0,1.0,-1.0,5.0,5.5,4.0,3.0,4.0
248.0,3.0,3.380000000000017,0.0,-3.0,1.0,1.0,-1.0,5.0,5.5,4.0,3.0,4.0
249.0,3.0,3.0,0.0,-3.0,1.0,1.0,-1.0,5.184999999999993,5.5,4.0,3.0,4.0
250.0,3.0,3.0,0.0,-3.0,1.0,1.249999999999992,-1.0,5.749999999999992,5.5,4.0,3.0,4.0
251.0,3.0,3.0,0.0,-3.0,1.0,1.8149999999999906,-1.0,6.0,5.5,4.0,3.0,4.0
252.0,3.0,3.3799999999999892,0.0,-3.0,1.0,2.0,-1.0,6.0,5.5,4.0,3.0,4.0
253.0,3.0,3.9449999999999874,0.0,-3.0,1.0,2.0,-1.0,6.0,5.5,4.0,3.0,4.0
254.0,3.0,4.0,0.0,-3.0,1.0,2.0,-1.0,6.0,5.5,4.0,3.0,4.0
255.0,3.0,4.0,0.0,-3.0,1.0,2.0,-1.0,6.0,5.5,4.0,3.0,4.0
256.0,3.0,4.0,0.0,-3.0,1.0,2.0,-1.0,6.0,5.5,4.0,3.0,4.0
257.0,3.0,4.0,0.0,-3.0,1.0,2.0,-1.0,6.0,5.5,4.0,3.0,4.0
258.0,3.0,4.0,0.0,-3.0,1.0,2.0,-1.0,6.0,5.5,4.0,3.0,4.0
259.0,3.0,4.0,0.0,-3.0,1.0,2.0,-1.0,6.0,5.5,4.0,3.0,4.0
260.0,3.0,4.0,0.0,-3.0,1.0,2.0,-1.0,6.0,5.5,4.0,3.0,4.0
261.0,3.0,4.0,0.0,-3.0,1.0,2.0,-0.07000000000001794,6.0,5.5,4.0,3.0,4.0
262.0,3.0,4.0,0.0,-3.0,1.0,2.0,0.0,6.0,5.5,4.0,3.0,4.0
263.0,3.0,4.0,0.0,-3.0,1.0,2.0,0.0,6.0,5.5,4.0,3.0,4.0
264.0,3.0,4.0,0.0,-3.0,1.0,2.0,0.0,6.0,5.5,4.0,3.0,4.0
265.0,3.0,4.0,0.0,-3.0,1.0,2.0,0.0,6.0,5.5,4.0,3.0,4.0
266.0,3.0,4.0,0.0,-3.0,1.0,2.0,0.0,6.0,5.5,4.0,3.0,4.0
267.0,3.0,4.0,0.0,-3.0,1.0,2.0,0.0,6.0,5.5,4.0,3.0,4.0
268.0,3.0,4.0,0.0,-3.0,1.0,2.0,0.0,6.0,5.5,4.0,3.0,4.0
269.0,3.0,3.030000000000008,0.0,-3.0,1.0,2.0,0.0,6.0,5.5,4.0,3.0,3.5150000000000037
270.0,3.0,3.0,0.0,-3.0,1.0,2.0,0.0,6.0,5.5,4.0,3.0,3.0
271.0,3.0,3.0,0.0,-3.0,1.0,2.0,0.0,6.0,5.5,4.0,3.0,3.0
272.0,3.0,3.0,0.0,-3.0,1.0,2.0,0.0,6.0,5.5,4.0,3.0,3.0
273.0,3.0,3.0,0.0,-3.0,1.0,2.0,0.0,6.0,5.5,4.0,3.0,3.0
274.0,3.0,3.0,0.0,-3.0,1.0,2.0,0.0,6.0,5.5,4.0,3.0,3.0
275.0,3.0,3.0,0.0,-3.0,1.0,2.0,0.0,6.0,5.5,4.0,3.0,3.0
276.0,3.0,3.0,0.0,-3.0,1.0,2.0,0.0,6.0,5.5,4.0,3.0,3.0
277.0,3.0,3.0,0.0,-3.0,1.0,2.0,0.0,6.0,5.5,4.0,3.0,3.0
278.0,3.0,3.0,0.0,-3.0,1.0,2.0,0.0,6.0,5.5,3.930000000000014,3.0,3.0
279.0,3.0,3.0,0.0,-3.0,1.0,2.0,0.0,6.0,5.365000000000006,3.365000000000006,3.0,3.0
280.0,3.0,3.0,0.0,-3.0,1.0,2.0,0.0,6.0,4.800000000000013,3.0,3.0,3.0
281.0,3.0,3.0,0.0,-3.0,1.0,2.0,0.0,6.0,4.5,3.0,3.0,3.0
282.0,3.0,3.0,0.0,-3.0,1.0,2.0,0.0,6.0,4.5,3.0,3.0,3.0
283.0,3.0,3.0,0.0,-3.0,1.0,2.0,0.0,6.0,4.5,3.0,3.0,3.0
284.0,3.0,3.0,0.0,-3.0,1.0,2.0,0.0,6.0,4.5,3.0,3.0,3.0
285.0,3.0,3.0,0.0,-3.0,1.0,2.0,0.0,6.0,4.5,3.0,3.0,3.0
286.0,3.0,3.0,0.0,-3.0,1.0,2.0,0.0,6.0,4.5,3.0,3.0,3.0
287.0,3.0,3.0,0.0,-3.0,1.0,2.0,0.0,6.0,4.5,3.0,3.0,3.0
288.0,3.0,3.0,0.0,-3.0,1.0,2.0,0.0,6.0,4.5,3.0,3.0,3.0
289.0,3.0,3.0,0.0,-3.0,1.0,2.0,0.0,6.0,4.5,3.0,3.0,3.0
290.0,3.0,3.0,0.0,-3.0,1.0,2.0,0.0,6.0,4.5,3.0,3.0,3.0
291.0,3.0,3.0,0.0,-3.0,1.0,2.0,0.0,6.0,4.5,3.0,3.0,3.0
292.0,3.0,3.0,0.0,-3.0,1.0,2.0,0.0,6.0,4.5,3.0,3.0,3.0
293.0,3.0,3.0,0.0,-3.0,1.0,1.0,0.0,6.0,4.5,3.0,3.0,3.0
294.0,3.0,3.0,0.0,-3.0,1.0,1.0,0.0,6.0,4.5,3.0,3.0,3.0
295.0,3.0,3.0,0.0,-3.0,1.0,1.0,0.0,6.0,4.5,3.0,3.0,3.0
296.0,3.0,3.0,0.0,-3.0,1.0,1.0,0.0,6.0,4.5,3.0,3.0,3.0
297.0,3.0,3.0,0.0,-3.0,1.0,1.0,0.0,6.0,4.5,3.0,3.0,3.0
298.0,3.0,3.0,0.0,-3.0,1.0,1.0,0.0,6.0,4.5,3.0,3.0,3.0
299.0,3.0,3.0,0.0,-3.0,1.0,1.0,0.0,6.0,4.5,3.0,3.0,3.0
300.0,3.0,3.0,0.0,-3.0,1.0,1.0,0.0,6.0,4.5,3.0,3.0,3.0
301.0,3.0,3.0,0.0,-3.0,1.0,1.0,0.0,6.0,4.5,3.0,3.0,3.0
302.0,3.0,3.0,0.0,-3.0,1.0,1.0,0.0,6.0,4.5,3.0,3.0,3.0
303.0,3.0,3.0,0.0,-3.0,1.0,1.0,0.0,6.0,4.5,3.0,3.0,3.0
304.0,3.0,3.0,0.0,-3.0,1.0,1.0,0.0,6.0,4.5,3.0,3.0,3.0
305.0,3.0,3.0,0.0,-3.0,1.0,1.0,0.0,6.0,4.5,3.0,3.0,3.0
306.0,3.0,3.0,0.0,-3.0,1.0,1.0,0.0,6.0,4.5,3.0,3.0,3.0
307.0,3.0,3.0,0.0,-3.0,1.0,1.0,0.0,6.0,4.5,3.0,3.0,3.0
308.0,3.0,3.0,0.0,-3.0,1.0,1.0,0.0,6.0,3.5,3.0,3.0,3.0
309.0,3.0,2.9150000000000156,0.0,-3.0,1.0,1.0,0.0,6.0,3.5,2.9150000000000156,3.0,3.0
310.0,3.0,2.350000000000026,0.0,-3.0,1.0,1.0,0.0,6.0,3.5,2.350000000000026,3.0,3.0
311.0,3.0,2.0,0.0,-3.0,1.0,1.0,0.0,5.570000000000018,3.5,2.0,2.570000000000018,3.0
312.0,3.0,2.0,0.0,-3.0,1.0,1.0,0.0,5.0,3.5,2.0,2.0,3.0
313.0,3.0,2.0,0.0,-3.0,1.0,1.0,0.0,5.0,3.5,2.0,2.0,3.0
314.0,3.0,2.0,0.0,-3.0,1.0,1.0,0.0,5.0,3.5,2.0,2.0,3.0
315.0,3.0,2.0,0.0,-3.0,1.0,1.0,0.0,5.0,3.5,2.0,2.0,3.0
316.0,3.0,2.0,0.0,-3.0,1.0,1.0,0.0,5.0,3.5,2.0,2.0,2.0
317.0,3.0,2.0,0.0,-3.0,1.0,1.0,0.0,5.0,3.5,2.0,2.0,2.0
318.0,3.0,2.0,0.0,-3.0,1.1699999999999795,1.0,0.0,5.0,3.5,2.0,2.0,2.0
319.0,3.0,2.0,0.0,-3.0,1.734999999999981,1.0,0.0,5.0,3.5,2.0,2.0,2.0
320.0,3.0,2.0,0.0,-3.0,2.0,1.0,0.0,5.0,3.5,2.0,2.0,2.0
321.0,3.0,2.0,0.0,-3.0,2.0,1.0,0.0,5.0,3.5,2.0,2.0,2.0
322.0,3.0,2.0,0.0,-3.0,2.0,1.0,0.0,5.0,3.5,2.0,2.0,2.0
323.0,3.0,2.0,0.0,-3.0,2.0,1.0,0.0,5.0,3.5,2.0,2.0,2.0
324.0,3.0,2.0,0.0,-3.0,2.0,1.0,0.0,5.0,3.5,2.0,2.0,2.0
325.0,3.0,2.0,0.0,-3.0,2.0,1.0,0.0,5.0,3.5,2.0,2.0,2.0
326.0,3.0,2.0,0.0,-3.0,2.0,1.0,0.0,5.0,3.5,2.0,2.0,2.0
327.0,3.0,2.0,0.0,-3.0,2.0,1.0,0.0,5.0,3.5,2.0,2.0,2.0
328.0,3.0,2.0,0.0,-3.0,2.0,1.0,0.0,5.0,3.5,2.0,2.0,2.0
329.0,3.0,2.0,0.0,-3.0,2.0,0.6150000000000222,0.0,5.0,3.5,2.0,2.0,2.0
330.0,3.0,2.0,0.0,-2.5500000000000127,2.0,0.05000000000001281,0.0,5.0,3.5,2.0,2.0,2.0
331.0,3.0,2.0,0.0,-2.0,2.0,0.0,0.0,5.0,3.4850000000000283,2.0,2.0,2.0
332.0,3.0,2.0,0.0,-2.0,2.0,0.0,0.0,5.0,2.920000000000017,2.0,2.0,2.0
333.0,3.0,2.0,0.0,-2.0,2.0,0.0,0.0,5.0,2.5,1.855000000000027,2.0,2.0
334.0,3.0,2.0,0.0,-2.0,2.0,0.0,0.0,5.0,2.5,1.2900000000000238,2.0,2.0
335.0,3.0,2.0,-0.2749999999999743,-2.0,2.0,0.0,0.0,5.0,2.5,1.0,2.0,2.0
336.0,3.0,2.0,-0.839999999999991,-2.0,2.0,0.0,0.0,5.0,2.5,1.0,2.0,2.0
337.0,3.0,2.0,-1.0,-2.0,2.0,0.0,0.0,5.0,2.5,1.0,2.0,2.0
338.0,3.469999999999992,2.0,-1.0,-2.0,2.0,0.0,0.0,5.0,2.5,1.0,2.0,2.0
339.0,4.0,2.0,-1.0,-2.0,2.0,0.0,0.0,5.0,2.5,1.0,2.0,2.0
340.0,4.0,2.0,-1.0,-2.0,2.0,0.0,0.0,5.0,2.5,1.0,2.0,2.0
341.0,4.0,2.0,-1.0,-2.0,2.0,0.0,0.0,5.0,2.5,1.0,2.0,2.0
342.0,3.54000000000004,2.0,-1.0,-2.0,2.0,0.0,0.0,4.77000000000002,2.5,1.0,1.5400000000000398,2.0
343.0,3.0,2.0,-1.0,-2.0,2.0,0.0,0.0,4.7949999999999795,2.5,1.0,1.0,2.0
344.0,3.0,2.0,-1.0,-2.0,2.0,0.0,0.0,5.0,2.5,1.0,1.0,2.0
345.0,3.0,2.0,-1.0,-2.0,2.0,0.0,0.0,5.0,2.5,1.0,1.0,2.0
346.0,3.0,1.020000000000068,-1.0,-2.0,2.0,0.0,0.0,5.0,2.5,1.0,1.0,2.0
347.0,3.0,1.0,-1.0,-2.0,2.0,0.0,0.0,5.0,2.5,1.0,1.0,2.0
348.0,3.0,1.0,-1.0,-2.0,2.0,0.0,0.0,5.0,2.5,1.0,1.0,2.0
349.0,2.815000000000017,1.0,-1.0,-2.0,2.0,0.0,0.0,5.0,2.5,1.0,1.0,2.0
350.0,2.250000000000016,1.0,-1.0,-2.0,2.0,0.0,0.0,5.0,2.5,1.0,1.0,2.0
351.0,2.0,1.0,-1.0,-2.0,2.0,0.0,0.0,5.0,2.5,1.0,1.0,2.0
352.0,2.0,1.0,-1.0,-2.0,2.0,0.0,0.0,5.0,2.5,1.0,1.0,2.0
353.0,2.0,1.0,-1.0,-2.0,2.0,0.0,0.0,5.0,2.5,1.0,1.0,2.0
354.0,2.0,1.0,-1.0,-2.0,2.0,0.0,0.0,5.0,2.5,0.9900000000000295,1.0,2.0
355.0,2.0,1.0,-1.0,-2.0,2.0,0.0,0.0,5.0,2.350000000000035,0.4250000000000177,1.0,2.0
356.0,2.0,1.0,-1.0,-2.0,2.0,0.0,0.0,5.0,1.5,0.0,1.0,1.7200000000000566
357.0,2.0,1.0,-1.0,-2.0,2.0,0.0,0.4099999999999505,5.0,1.5,0.0,1.0,1.0
358.0,2.0,1.0,-1.0,-2.0,2.0,0.0,1.0,5.0,1.5,0.0,1.0,1.0
359.0,2.0,1.0,-1.0,-2.0,2.0,0.0,1.0,5.0,1.5,0.0,1.0,1.0
360.0,2.0,1.0,-1.0,-2.0,2.0,0.0,1.0,5.0,1.5,0.0,1.0,1.0
361.0,2.0,1.0,-1.0,-2.0,2.0,0.0,1.0,5.0,1.5,0.0,1.0,1.0
362.0,2.0,1.0,-1.0,-2.0,1.4700000000000244,0.0,1.0,5.0,1.5,0.0,1.0,1.0
363.0,2.0,1.0,-1.0,-2.0,1.0,0.0,1.0,5.0,1.5,0.0,1.0,1.0
364.0,2.0,1.0,-1.0,-2.0,1.0,0.0,1.0,5.0,1.5,0.0,1.0,1.0
365.0,2.0,1.0,-1.0,-2.0,1.0,0.0,1.0,5.0,1.5,0.0,1.0,1.0
366.0,2.0,1.0,-1.0,-1.7100000000000217,1.0,0.0,1.0,5.0,1.5,0.0,1.0,1.0
367.0,1.290000000000056,1.0,-1.0,-1.145000000000028,1.0,0.0,1.0,5.0,1.5,0.0,1.0,1.0
368.0,1.0,1.0,-1.0,-1.0,1.0,0.0,1.0,5.0,1.5,0.0,1.0,1.0
369.0,1.0,0.03000000000006997,-1.0,-1.0,1.0,0.0,1.0,5.0,1.5,0.0,1.0,1.0
370.0,1.0,0.0,-0.9000000000000385,-1.0,1.0,0.0,1.0,5.0,1.5,0.0,1.0,1.0
371.0,1.0,0.0,0.0,-1.0,1.0,0.0,1.0,5.0,1.5,0.0,1.0,1.0
372.0,1.0,0.0,0.0,-1.0,1.0,0.0,1.0,5.0,1.5,0.0,1.0,1.0
373.0,1.0,0.0,0.0,-1.0,1.0,0.0,1.0,5.0,1.5,0.0,1.0,1.0
374.0,1.0,0.0,0.0,-1.0,1.0,0.0,1.0,5.0,1.5,0.0,0.6900000000000167,1.0
375.0,1.0,0.0,0.0,-1.0,1.0,0.0,1.0,5.0,1.5,0.0,0.1250000000000241,1.0
376.0,1.0,0.0,0.0,-1.0,1.0,0.0,1.0,5.0,1.5,0.0,0.0,1.0
377.0,1.0,0.0,0.0,-1.0,1.0,0.0,1.0,5.0,0.5,0.0,0.0,1.0
378.0,1.0,0.0,0.0,-1.0,1.0,0.0,1.0,5.0,0.5,0.0,0.0,1.0
379.0,1.0,0.0,0.0,-1.0,1.0,0.0,1.0,5.0,0.5,0.0,0.0,1.0
380.0,1.0,0.0,0.0,-1.0,1.0,0.0,1.0,5.0,0.5,0.0,0.0,1.0
381.0,1.0,0.0,0.0,-1.0,1.0,0.0,1.0,5.0,0.5,0.0,0.0,1.0
382.0,1.0,0.0,0.0,-1.0,1.0,0.0,1.0,5.0,0.5,0.0,0.0,1.0
383.0,1.0,0.0,0.0,-1.0,1.0,0.0,1.0,5.0,0.5,0.0,0.0,1.0
384.0,1.0,0.0,0.0,-1.0,1.0,0.0,1.4599999999999898,5.0,0.5,0.0,0.0,1.0
385.0,1.0,0.0,0.0,-1.0,1.0,0.0,2.0,5.0,0.5,0.0,0.0,1.0
386.0,1.0,0.0,0.0,-1.0,1.0,0.0,2.0,5.0,0.5,0.0,0.0,1.0
387.0,0.6900000000000488,0.0,0.0,-1.0,1.0,0.0,2.0,5.0,0.5,0.0,0.0,1.0
388.0,0.0,0.0,0.0,-1.0,1.0,0.0,2.0,5.0,0.5,0.0,0.0,1.0
389.0,0.0,0.0,0.0,-0.43000000000004623,0.7150000000000232,0.0,2.0,5.0,0.5,0.0,0.0,1.0
390.0,0.0,0.0,0.0,0.0,0.1500000000000289,0.0,2.0,5.0,0.5,0.0,0.0,1.0
391.0,0.0,0.0,0.0,0.0,0.0,0.0,2.0,5.0,0.5,0.0,0.0,1.0
392.0,0.0,0.0,0.0,0.0,0.0,0.0,2.0,5.0,0.5,0.0,0.0,1.0
393.0,0.0,0.0,0.0,0.0,0.0,0.0,2.0,6.0,0.5,0.0,0.0,1.0
394.0,0.0,0.0,0.0,0.0,0.0,0.0,2.0,6.0,0.5,0.0,0.0,1.0
395.0,0.0,0.0,0.0,0.0,0.0,0.0,2.0,6.0,0.5,0.0,0.0,0.6500000000000385
396.0,0.0,0.0,0.0,0.0,0.0,0.0,2.0,6.0,0.5,0.0,0.0,0.0
397.0,0.0,0.0,0.0,0.0,0.0,0.0,2.0,6.0,0.5,0.0,0.0,0.0
398.0,0.0,0.0,0.0,0.0,0.0,0.0,2.0,6.0,0.5,0.0,0.0,0.0
399.0,0.0,0.0,0.0,0.0,0.0,0.0,2.0,6.0,0.5,0.0,0.0,0.0
400.0,0.0,0.0,0.0,0.0,0.0,0.0,2.0,6.0,0.5,0.0,0.0,0.0
401.0,0.0,0.0,0.0,0.0,0.0,0.0,3.0,6.0,0.5,-0.5649999999999804,0.0,0.0
402.0,0.0,0.0,0.0,0.0,0.0,0.0,3.0,6.0,0.5,-1.0,0.0,0.0
403.0,0.0,0.0,0.0,0.0,0.0,0.0,3.0,6.0,0.5,-1.0,0.0,0.0
404.0,0.0,0.0,0.0,0.0,0.0,0.0,3.0,6.0,0.5,-1.0,0.0,0.0
405.0,0.0,0.0,0.0,0.0,0.0,0.0,3.0,6.0,0.5,-1.0,0.0,0.0
406.0,0.0,0.0,0.0,0.0,0.0,0.0,3.0,6.0,0.5,-1.0,0.0,0.0
407.0,0.0,0.0,0.0,0.0,0.0,0.0,3.0,6.4549999999999885,0.5,-1.0,0.0,0.0
408.0,0.0,0.0,0.0,0.0,0.0,0.0,3.0,7.0,0.5,-1.0,0.0,0.0
409.0,0.0,0.0,0.0,0.0,0.0,0.0,3.0,7.0,0.5,-1.0,0.0,0.0
410.0,0.0,0.0,0.0,0.0,0.0,0.0,3.0,7.0,0.5,-1.0,0.0,0.0
411.0,0.0,0.0,0.0,0.0,0.0,0.0,3.0,7.0,0.5,-1.0,0.0,0.0
412.0,0.0,0.0,0.0,0.0,0.0,0.0,3.0,7.0,0.5,-1.0,0.0,0.0
413.0,0.0,0.0,0.0,0.0,0.0,0.0,3.0,7.0,0.5,-1.0,0.0,0.0
414.0,0.0,0.0,0.0,0.0,0.0,0.0,3.0,7.0,0.5,-1.0,0.0,0.0
415.0,0.0,0.0,0.0,0.0,0.0,0.0,3.0,7.0,0.5,-1.0,0.0,0.0
416.0,0.0,0.0,0.0,0.0,0.0,0.0,3.0,7.0,0.5,-1.0,0.0,0.0
417.0,0.0,0.0,0.0,0.0,0.0,0.0,3.0,7.0,0.5,-1.0,0.0,0.0
418.0,0.0,0.0,0.0,0.0,0.0,0.0,3.0,7.0,0.5,-1.0,0.0,0.0
419.0,0.0,0.0,0.0,0.0,0.0,0.0,3.2349999999999812,7.0,0.5,-1.0,0.0,0.0
420.0,0.0,0.0,0.0,0.0,0.0,0.0,3.7999999999999807,7.0,0.5,-1.0,0.0,0.0
421.0,0.0,0.0,0.0,0.0,0.0,0.0,4.0,7.0,0.5,-1.0,0.0,0.0
422.0,0.0,0.0,0.0,0.0,0.0,0.0,4.0,7.0,0.5,-1.0,0.0,0.0
423.0,0.0,0.0,0.0,0.0,0.0,0.0,4.0,7.0,0.5,-1.0,0.0,0.0
424.0,0.0,0.0,0.0,0.0,0.0,0.0,4.0,8.0,0.5,-1.0,0.0,0.0
425.0,0.0,0.0,0.0,0.0,0.0,0.0,4.0,8.0,0.5,-1.0,0.0,0.0
426.0,-0.18999999999997239,0.0,0.0,0.0,0.0,0.0,4.0,8.0,0.5,-1.0,0.0,0.0
427.0,-0.7549999999999693,-0.5099999999999384,0.0,0.0,0.0,0.0,4.0,8.0,0.5,-1.5099999999999385,0.0,0.0
428.0,-1.0,-1.0,0.0,0.0,0.0,0.0,4.0,8.0,0.5,-2.0,0.0,0.0
429.0,-1.0,-1.0,0.0,0.0,0.0,0.0,4.0,8.0,0.5,-2.0,0.0,0.0
430.0,-1.0,-1.0,0.0,0.0,0.0,0.0,4.0,8.0,0.5,-2.0,0.0,0.0
431.0,-1.0,-1.0,0.0,0.0,0.0,0.0,4.0,8.0,0.5,-2.0,0.0,0.0
432.0,-1.0,-1.0,0.0,0.0,0.0,0.0,4.0,8.0,0.5,-2.0,0.0,0.0
433.0,-1.0,-1.0,0.0,0.0,0.0,0.0,4.0,8.0,0.5,-2.0,0.0,0.0
434.0,-1.0,-1.0,0.0,0.41999999999995247,0.0,0.0,4.0,8.0,0.5,-2.0,0.0,0.0
435.0,-1.0,-1.0,0.0,1.0,0.0,0.0,4.0,8.0,0.5,-2.0,0.0,0.0
436.0,-1.0,-1.0,0.0,1.0,0.0,0.0,4.679999999999938,8.0,0.5,-2.0,-0.33999999999996916,0.0
437.0,-1.0,-1.0,0.0,1.0,0.0,0.0,5.0,8.0,0.5,-2.0,-0.9049999999999756,0.0
438.0,-1.0,-1.0,0.0,1.0,0.0,0.0,5.0,8.0,0.5,-2.0,-1.0,0.0
439.0,-1.0,-1.0,0.0,1.0,0.0,0.0,5.0,8.0,0.5,-2.0,-1.0,0.0
440.0,-1.0,-1.0,0.0,1.0,0.0,0.0,5.0,8.0,0.5,-2.0,-1.0,0.0
441.0,-1.0,-1.0,0.0,1.0,0.0,0.0,5.0,8.0,0.5,-2.0,-1.0,0.0
442.0,-1.4599999999999602,-1.0,0.0,1.0,0.0,0.0,5.0,8.0,0.5,-2.0,-1.0,0.0
443.0,-2.0,-1.0,0.0,1.0,0.0,0.0,5.0,8.589999999999959,0.5,-2.0,-1.0,0.0
444.0,-2.0,-1.0,0.0,1.0,-0.359999999999973,0.0,5.0,9.0,0.5,-2.0,-1.0,-0.359999999999973
445.0,-2.0,-1.0,0.0,1.0,-0.9249999999999807,0.0,5.0,9.0,0.5,-2.0,-1.0,-0.9249999999999807
446.0,-2.0,-1.0,0.0,1.0,-1.0,0.0,5.0,9.0,0.5,-2.0,-1.0,-1.0
447.0,-2.0,-1.0,0.0,1.0,-1.0,0.0,5.0,9.0,0.5,-2.0,-1.0,-1.0
448.0,-2.0,-1.0,0.0,1.0,-1.0,0.0,5.0,9.0,0.5,-2.0,-1.0,-1.0
449.0,-2.0,-1.0,0.0,1.0,-1.0,0.0,5.0,9.0,0.5,-2.0,-1.0,-1.0
450.0,-2.0,-1.0,0.0,1.0,-1.0,0.0,5.0,9.0,0.5,-2.0,-1.0,-1.0
451.0,-2.0,-1.0,0.0,1.0,-1.0,0.0,5.0,9.0,1.1299999999999693,-2.0,-1.0,-1.0
452.0,-2.0,-1.0,0.0,1.0,-1.0,0.0,5.0,9.0,1.5,-2.0,-1.0,-1.0
453.0,-2.0,-1.0,0.0,1.0,-1.0,0.0,5.0,9.0,1.5,-2.0,-1.0,-1.0
454.0,-3.0,-1.0,0.0,1.0,-1.0,0.0,5.5099999999999705,9.0,1.5,-2.0,-1.0,-1.0
455.0,-3.0,-1.0,0.0,1.0,-1.0,0.0,6.0,9.0,1.4250000000000176,-2.0,-1.0,-1.0
456.0,-3.0,-1.0,0.0,1.0,-1.0,0.0,6.0,9.0,0.8600000000000283,-2.0,-1.0,-1.0
457.0,-3.0,-1.0,0.20499999999997526,1.2049999999999752,-1.0,0.0,6.0,9.0,0.5,-2.4099999999999504,-1.0,-1.0
458.0,-3.0,-1.0,0.769999999999973,1.769999999999973,-1.0,0.0,6.0,9.0,0.5,-3.0,-1.0,-1.0
459.0,-3.0,-1.0,1.0,2.0,-1.0,0.0,6.0,9.0,0.5,-3.0,-1.0,-1.0
460.0,-3.0,-1.0,1.0,2.0,-1.0,0.0,6.0,9.0,0.5,-3.0,-1.0,-1.0
461.0,-3.0,-1.0,1.0,2.0,-1.0,0.0,6.0,9.0,0.5,-3.0,-1.0,-1.0
462.0,-3.0,-1.0,1.0,2.0,-2.0,0.0,6.0,9.0,0.5,-3.0,-1.0,-1.0
463.0,-3.0,-1.0,1.0,2.0,-2.0,0.0,6.0,9.0,0.5,-3.0,-1.0,-1.0
464.0,-3.0,-1.0,1.0,2.0,-2.0,0.0,6.0,9.0,0.5,-3.0,-1.0,-1.0
465.0,-3.0,-1.0,1.0,2.0,-2.0,0.0,6.0,9.0,0.5,-3.0,-1.0,-1.0
466.0,-3.2899999999999783,-1.0,1.0,2.0,-2.0,0.0,6.0,9.0,0.5,-3.0,-1.0,-1.0
467.0,-3.854999999999972,-1.0,1.0,2.0,-2.0,0.0,6.0,9.0,0.5,-3.0,-1.0,-1.0
468.0,-4.0,-1.0,1.0,2.0,-2.0,0.0,6.0,9.0,0.5,-3.0,-1.0,-1.0
469.0,-4.0,-1.96999999999993,1.0,2.0,-2.0,0.0,6.0,8.03000000000007,0.5,-3.0,-1.0,-1.0
470.0,-4.0,-2.0,1.0,2.0,-2.0,0.0,6.0,8.0,0.5,-3.0,-1.0,-1.0
471.0,-4.0,-2.0,1.0,2.0,-2.0,0.0,6.114999999999966,8.0,0.5,-3.0,-1.0,-1.0
472.0,-4.0,-2.0,1.0,2.0,-2.0,0.0,6.67999999999997,8.0,0.5,-3.0,-1.0,-1.0
473.0,-4.0,-2.0,1.4899999999999332,2.0,-2.0,0.0,7.0,8.0,0.5,-3.0,-1.0,-1.0
474.0,-4.0,-2.0,2.0,2.0,-2.0,0.0,7.0,8.0,0.5,-3.0,-1.0,-1.0
475.0,-4.0,-2.0,2.0,2.0,-2.749999999999952,0.0,7.0,8.0,0.5,-3.0,-1.0,-1.0
476.0,-4.0,-2.0,2.0,2.0,-3.0,0.0,7.0,8.0,0.5,-3.0,-1.8799999999999693,-1.8799999999999693
477.0,-4.0,-2.0,2.0,2.0,-3.0,0.0,7.0,8.0,0.49000000000006166,-3.0,-2.0,-2.0
478.0,-4.0,-1.8600000000000372,2.0,2.069999999999981,-3.0,0.0,7.0,8.0,-0.5,-3.0,-2.0,-2.0
479.0,-4.0,-1.0,2.0,2.6349999999999705,-3.0,0.0,7.0,7.8650000000000295,-0.5,-3.0,-2.0,-2.0
480.0,-4.0,-1.0,2.0,3.0,-3.0,0.0,7.0,7.300000000000026,-0.5,-3.0,-2.0,-2.0
481.0,-4.0,-1.0,2.0,3.0,-3.0,0.0,7.0,7.0,-0.5,-3.0,-2.0,-2.0
482.0,-4.0,-1.6599999999999344,2.0,3.0,-3.0,0.0,7.0,7.0,-0.5,-3.0,-2.0,-2.0
483.0,-4.0,-2.0,2.0,3.0,-3.0,0.0,7.0,7.0,-0.5,-3.0,-2.0,-2.0
484.0,-4.0,-2.0,2.0,3.0,-3.0,0.0,7.0,7.0,-0.5,-3.0,-2.0,-2.0
485.0,-4.0,-2.0,2.0,3.0,-3.0,0.0,7.0,7.0,-0.5,-3.0,-2.0,-2.0
486.0,-4.0,-2.0,2.0,3.0,-3.0,0.0,7.0,7.0,-0.5,-3.0,-2.0,-2.0
487.0,-4.0,-2.0,2.0,3.0,-3.0,0.0,7.0,6.845000000000025,-0.5,-3.0,-2.0,-2.0
488.0,-4.0,-2.0,2.0,3.0,-3.0,0.0,7.0,6.280000000000022,-0.5,-3.0,-2.0,-2.0
489.0,-4.0,-2.0,2.0,3.0,-3.0,0.0,7.0,6.0,-0.5,-3.0,-2.0,-2.0
490.0,-4.0,-2.0,2.0,3.0,-3.0,0.0,7.0,6.0,-0.5,-3.0,-2.0,-2.0
491.0,-4.0,-2.0,2.0,3.0,-3.0,0.0,6.1700000000000434,6.0,-0.5,-3.0,-2.0,-2.0
492.0,-4.0,-2.0,2.0,3.0,-3.0,0.0,6.0,6.0,-0.5,-3.0,-2.0,-2.0
493.0,-4.0,-2.0,2.0,3.0,-3.0,0.0,6.0,6.0,-0.5,-3.0449999999999764,-2.0,-2.0
494.0,-4.0,-1.780000000000072,2.0,3.0,-3.0,0.0,6.0,5.780000000000072,-0.5,-3.609999999999964,-2.0,-2.0
495.0,-4.0,-1.0,2.0,3.0,-3.0,0.0,6.0,5.0,-0.5,-4.0,-2.0,-2.0
496.0,-4.0,-1.0,2.0,3.0,-3.0,0.0,6.0,5.0,-0.5,-4.0,-2.0,-2.0
497.0,-4.0,-1.0,2.0,3.0,-3.0,0.0,6.0,5.0,-0.5,-4.0,-2.0,-2.0
498.0,-4.0,-1.0,2.0,3.0,-3.0,0.0,6.0,5.0,-0.5,-4.0,-2.0,-2.0
499.0,-4.0,-1.0,2.0,3.0,-3.0,0.0,6.0,5.0,-0.5,-4.0,-2.0,-2.0
500.0,-4.0,-1.0,2.0,3.0,-3.0,0.0,6.0,5.0,-0.5,-4.0,-2.0,-2.0
501.0,-4.0,-1.0,2.0,3.0,-3.0,0.0,6.0,4.43500000000002,-0.5,-3.9350000000000196,-2.0,-2.0
502.0,-4.0,-1.0,2.0,3.0,-3.0,0.0,6.0,4.0,-0.5,-3.3700000000000307,-2.0,-2.0
503.0,-4.0,-1.0,2.0,3.0,-3.0,0.0,6.0,4.0,-0.5,-3.0,-2.0,-2.0
504.0,-4.0,-1.0,2.0,3.0,-3.0,0.0,6.0,4.0,-0.5,-3.0,-2.0,-2.0
505.0,-4.0,-1.0,2.0,3.0,-3.0,0.0,6.0,4.0,-0.5,-3.0,-2.0,-2.0
506.0,-4.0,-1.0,2.0,3.0,-3.0,0.0,6.0,3.6100000000000283,-0.5,-3.0,-2.0,-2.0
507.0,-4.0,-1.0,2.0,3.0,-3.0,0.0,6.0,3.045000000000041,-0.5,-3.0,-2.0,-2.0
508.0,-4.0,-1.0,2.0,3.0,-3.0,0.0,6.0,3.0,-0.5,-3.0,-2.0,-2.0
509.0,-4.0,-1.0,2.0,3.0,-3.0,0.0,6.0,3.0,-0.5,-3.0,-2.0,-1.9150000000000158
510.0,-4.0,-1.0,2.0,3.0,-3.0,0.0,6.0,2.850000000000026,-0.5,-3.0,-2.0,-1.3500000000000256
511.0,-4.0,-1.0,2.0,3.0,-3.0,0.0,6.0,2.285000000000023,-0.5,-3.0,-2.0,-1.0
512.0,-4.0,-1.0,2.0,3.0,-3.0,0.0,6.0,2.0,-0.5,-3.0,-2.0,-1.0
513.0,-4.0,-1.0,2.0,2.6550000000000398,-3.0,0.0,5.3100000000000795,2.0,-0.5,-3.0,-2.0,-1.0
514.0,-4.0,-1.0,2.0,2.090000000000023,-3.0,0.0,5.0,2.0,-0.5,-3.0,-2.0,-1.0
515.0,-4.0,-1.0,2.0,2.0,-3.0,0.0,5.0,2.0,-0.5,-3.0,-2.0,-1.0
516.0,-4.0,-1.0,2.0,2.0,-3.0,0.0,5.0,1.0,-0.5,-3.0,-1.9200000000001078,-1.0
517.0,-4.0,-0.7900000000000745,2.1049999999999627,2.0,-3.0,0.0,5.0,1.0,-0.5,-3.0,-1.0,-1.0
518.0,-4.0,0.0,2.6699999999999795,2.0,-3.0,0.0,5.0,1.0,-0.6699999999999795,-3.0,-1.0,-1.0
519.0,-4.0,0.0,3.0,2.0,-3.0,0.0,5.0,1.0,-1.234999999999996,-3.0,-1.0,-1.0
520.0,-4.0,0.0,3.0,2.0,-3.0,0.0,5.0,0.4000000000000514,-1.5,-3.0,-1.0,-1.0
521.0,-3.2700000000000693,0.0,3.0,2.0,-3.0,0.0,5.0,0.0,-1.5,-3.0,-1.0,-1.0
522.0,-3.0,0.0,3.0,2.0,-3.0,0.0,5.0,0.0,-1.5,-3.0,-1.0,-1.0
523.0,-3.0,0.0,3.0,2.0,-3.0,0.0,5.0,0.0,-1.5,-3.0,-1.0,-1.0
524.0,-3.0,0.0,3.0,2.0,-3.0,0.5599999999999512,4.440000000000049,0.0,-1.5,-3.0,-1.0,-1.0
525.0,-3.0,0.0,3.0,2.0,-3.0,1.0,4.0,0.0,-1.5,-3.0,-1.0,-1.0
526.0,-3.0,0.0,3.0,2.0,-3.0,1.0,4.0,0.0,-1.5,-3.0,-1.0,-1.0
527.0,-3.0,0.0,3.0,2.0,-3.0,1.0,4.0,0.0,-1.5,-3.0,-1.0,-1.0
528.0,-3.0,0.0,3.0,2.0,-3.0,1.0,4.0,-0.31999999999995377,-1.5,-2.3600000000000927,-1.0,-1.0
529.0,-3.0,0.0,3.0,2.0,-3.0,1.0,4.0,-0.8849999999999705,-1.5,-2.0,-1.0,-1.0
530.0,-3.0,0.0,2.1000000000000254,2.0,-3.0,1.0,4.0,-1.0,-1.9499999999999873,-2.0,-1.0,-1.0
531.0,-3.0,0.0,2.0,2.0,-3.0,1.0,3.984999999999998,-1.015000000000002,-2.5,-2.0,-1.0,-1.0
532.0,-2.9200000000000434,0.0,2.0,2.0,-3.0,1.0,3.4200000000000434,-1.5799999999999563,-2.5,-2.0,-1.0,-1.0
533.0,-2.355000000000027,0.0,2.0,2.0,-3.0,1.0,3.0,-2.0,-2.5,-2.0,-1.0,-1.0
534.0,-2.0,0.0,2.0,2.0,-3.0,1.0,3.0,-2.0,-2.5,-2.0,-1.0,-1.0
535.0,-2.0,0.0,2.0,1.725000000000029,-3.0,1.0,3.0,-2.0,-2.5,-2.0,-1.0,-1.0
536.0,-2.0,0.0,2.0,1.160000000000041,-2.660000000000041,1.0,3.0,-2.679999999999918,-2.5,-2.0,-1.0,-1.0
537.0,-2.0,0.0,2.0,1.0,-2.0950000000000246,1.0,3.0,-3.0,-2.5,-2.0,-1.0,-1.0
538.0,-2.0,0.0,2.0,1.0,-2.0,1.0,3.0,-3.0,-2.5,-2.0,-1.0,-1.0
539.0,-2.0,0.0,2.0,1.0,-2.0,1.0,2.9300000000001103,-3.0,-2.5,-2.0,-1.0,-1.0
540.0,-2.0,0.0,2.0,1.0,-2.0,1.0,2.0,-3.199999999999923,-2.5,-2.0,-1.0,-1.0
541.0,-2.0,0.0,2.0,1.0,-2.0,1.0,2.0,-4.0,-2.8299999999999566,-2.0,-1.0,-0.8350000000000218
542.0,-2.0,0.0,2.0,1.0,-2.0,1.0,2.0,-4.0,-3.5,-2.0,-1.0,-0.2700000000000051
543.0,-2.0,0.0,2.0,1.0,-2.0,1.0,2.0,-4.0,-3.5,-2.0,-1.0,0.0
544.0,-2.0,0.0,2.0,1.0,-2.0,1.0,2.0,-4.0,-3.5,-2.0,-0.640000000000036,0.0
545.0,-2.0,0.0,2.0,1.0,-2.0,1.0,2.0,-4.0,-3.5,-2.0,-0.07500000000001927,0.0
546.0,-2.0,0.0,2.0,1.0,-2.0,1.0,2.0,-4.979999999999995,-3.5,-2.0,0.0,0.0
547.0,-2.0,0.0,2.0,1.0,-2.0,1.0,2.0,-5.0,-3.5,-2.0,0.0,0.0
548.0,-2.0,0.0,2.0,1.0,-2.0,1.0,2.0,-5.0,-3.5,-2.0,0.0,0.0
549.0,-2.0,0.0,2.0,1.0,-2.0,1.0,1.8150000000000166,-5.0,-3.5,-2.0,0.0,0.0
550.0,-2.0,0.0,2.0,1.0,-2.0,1.0,1.2500000000000322,-5.0,-3.5,-2.0,0.0,0.0
551.0,-2.0,0.0,2.0,1.0,-2.0,1.0,1.0,-5.314999999999952,-3.5,-2.0,0.0,0.0
552.0,-1.2400000000000615,0.0,2.0,1.0,-2.0,1.0,1.0,-5.879999999999969,-3.5,-1.6200000000000307,0.0,0.0
553.0,-1.0,0.0,2.0,1.0,-2.0,1.0,1.0,-6.0,-3.5,-1.0550000000000141,0.0,0.0
554.0,-1.0,0.0,2.0,1.0,-2.0,1.0,1.0,-6.0,-3.5,-1.0,0.0,0.0
555.0,-1.0,0.0,2.0,1.0,-2.0,1.0,1.0,-6.0,-3.5,-1.0,0.0,0.0
556.0,-1.0,0.0,2.0,1.0,-2.0,1.0,1.0,-6.0,-3.5,-1.0,0.0,0.0
557.0,-1.0,0.0,2.0,0.5900000000000232,-2.0,1.0,1.0,-6.2049999999999885,-3.909999999999977,-1.0,0.0,0.0
558.0,-1.0,0.0,2.0,0.0,-2.0,1.0,1.0,-6.76999999999997,-4.5,-1.0,0.0,0.0
559.0,-1.0,0.0,2.0,0.0,-2.0,1.0,1.0,-7.0,-4.5,-1.0,0.0,0.0
560.0,-1.0,0.0,2.0,0.0,-1.6000000000000256,1.0,0.20000000000005136,-7.0,-4.5,-1.0,0.0,0.0
561.0,-1.0,0.0,2.0,0.0,-1.035000000000009,1.0,0.0,-7.0,-4.5,-1.0,0.0,0.0
562.0,-1.0,0.0,2.0,0.0,-1.0,1.0,0.0,-7.0,-4.5,-1.0,0.0,0.0
563.0,-1.0,0.0,2.0,0.0,-1.0,1.0,0.0,-7.0,-4.5,-1.0,0.0,0.0
564.0,-1.0,0.0,2.0,0.0,-1.0,1.0,0.0,-7.0,-4.5,-1.0,0.0,0.0
565.0,-1.0,0.0,1.5500000000000127,0.0,-1.0,1.0,0.0,-7.0,-4.5,-1.0,0.0,0.0
566.0,-1.0,0.0,1.0,0.0,-1.0,1.0,0.0,-7.0,-4.5,-1.0,0.0,0.0
567.0,-1.0,0.0,1.0,0.0,-1.0,1.0,0.0,-7.0,-4.5,-1.0,0.0,0.0
568.0,-1.0,0.0,1.0,0.0,-1.0,1.0,0.0,-7.0,-4.5,-1.0,0.0,0.0
569.0,-1.0,0.0,1.0,0.0,-1.0,1.0,0.0,-7.969999999999993,-4.5,-1.0,0.0,0.0
570.0,-1.0,0.0,1.0,0.0,-1.0,1.0,0.0,-8.0,-4.5,-1.0,0.0,0.0
571.0,-1.0,0.0,1.0,0.0,-1.0,1.0,0.0,-8.0,-4.5,-1.0,0.0,0.0
572.0,-0.640000000000036,0.0,1.0,0.0,-1.0,1.0,0.0,-8.0,-4.5,-1.0,0.0,0.0
573.0,0.0,0.0,1.0,0.0,-1.0,1.0,0.0,-8.0,-4.5,-1.0,0.0,0.0
574.0,0.0,0.0,1.0,0.0,-1.0,1.0,0.0,-8.0,-4.5,-1.0,0.0,0.0
575.0,0.0,0.0,1.0,0.0,-1.0,1.0,0.0,-8.0,-4.5,-1.0,0.0,0.0
576.0,0.0,0.0,1.0,0.0,-1.0,1.0,0.0,-8.0,-4.5,-1.0,0.0,0.0
577.0,0.0,0.0,1.0,0.0,-1.0,1.0,0.0,-8.0,-4.5,-1.0,0.0,0.0
578.0,0.0,0.0,1.0,0.0,-1.0,1.0,0.0,-8.0,-4.5,-1.0,0.0,0.0
579.0,0.0,0.0,1.0,0.0,-1.0,1.0,0.0,-8.0,-4.5,-1.0,0.0,0.0
580.0,0.0,0.0,1.0,0.0,-1.0,1.0,0.0,-8.0,-4.5,-1.0,0.0,0.0
581.0,0.0,0.0,1.0,0.0,-1.0,1.0,0.0,-8.0,-4.5,-1.0,0.0,0.0
582.0,0.0,0.0,1.0,0.0,-1.0,1.0,0.0,-8.0,-4.5,-1.0,0.0,0.0
583.0,0.0,0.0,1.0,0.0,-1.0,1.0,0.0,-8.0,-4.5,-1.0,0.0,0.0
584.0,0.0,0.0,1.0,0.0,-1.0,1.0,0.0,-8.0,-4.5,-1.0,0.0,0.0
585.0,0.0,0.0,1.0,0.0,-1.0,1.0,0.0,-8.0,-4.5,0.0,0.0,0.0
586.0,0.0,0.0,1.0,0.0,-1.0,1.0,0.0,-8.0,-4.5,0.0,0.0,0.0
587.0,0.0,0.0,1.0,0.0,-1.0,1.0,0.0,-8.0,-4.5,0.0,0.0,0.0
588.0,0.0,0.0,1.0,0.0,-1.0,1.0,0.0,-8.0,-4.5,0.0,0.0,0.0
589.0,0.0,0.0,1.0,0.0,-1.0,1.0,0.0,-8.0,-4.5,0.0,0.0,0.0
590.0,0.0,0.0,1.0,0.0,-1.0,1.0,0.0,-8.0,-4.5,0.0,0.0,0.0
591.0,0.0,0.0,1.0,0.0,-1.0,1.0,0.0,-8.0,-4.5,0.0,0.0,0.0
592.0,0.0,0.0,1.0,0.0,-1.0,1.0,0.0,-8.0,-4.5,0.0,0.0,0.0
593.0,0.0,0.0,1.0,0.0,-1.0,1.0,0.0,-8.0,-4.5,0.0,0.0,0.0
594.0,0.0,0.0,1.0,0.0,-1.0,1.0,0.0,-8.0,-4.5,0.0,0.0,0.0
595.0,0.0,0.0,1.0,0.0,-1.0,1.0,0.0,-8.0,-4.5,0.0,0.0,0.0
596.0,0.0,0.0,1.0,0.0,-1.0,1.0,0.0,-8.0,-4.5,0.0,0.0,0.0
597.0,0.0,0.0,1.0,0.0,-1.0,1.0,0.0,-8.0,-4.5,0.0,0.0,0.0
598.0,0.0,0.0,1.0,0.0,-1.0,1.0,0.0,-8.0,-4.5,0.0,0.0,0.0
599.0,0.0,0.0,1.0,0.0,-1.0,1.0,0.0,-8.0,-4.5,0.0,0.0,0.0
600.0,0.0,0.0,1.0,0.0,-1.0,1.0,0.0,-8.0,-4.5,0.0,0.0,0.0
601.0,0.0,0.0,1.0,0.0,-1.0,1.0,0.0,-8.0,-4.5,0.0,0.0,0.0
602.0,0.0,0.0,1.0,0.0,-1.0,1.0,0.0,-8.0,-4.5,0.0,0.0,0.0
603.0,0.0,0.0,1.0,0.0,-1.0,1.0,0.0,-8.0,-4.5,0.0,0.0,0.0
604.0,0.0,0.0,1.0,0.0,-1.0,1.0,0.0,-8.0,-4.5,0.0,0.0,0.0
605.0,0.0,0.0,1.0,0.0,-1.0,1.0,0.0,-8.0,-4.5,0.0,0.0,0.0
606.0,0.0,0.0,1.0,0.0,-1.0,1.0,0.0,-8.0,-4.5,0.0,0.0,0.0
607.0,0.0,0.0,1.0,0.0,-1.0,1.0,0.0,-8.0,-4.5,0.0,0.0,0.45499999999998847
608.0,0.0,0.0,1.0,0.0,-1.0,1.0,-1.0,-8.0,-4.5,0.0,0.0,0.4800000000000591
609.0,0.0,0.0,1.0,0.0,-1.0,1.0,-1.0,-8.0,-4.5,0.0,0.0,0.0
610.0,0.0,0.0,1.0,0.0,-1.0,1.0,-1.0,-8.0,-4.5,0.0,0.0,0.0
611.0,0.0,0.0,1.0,0.0,-1.0,1.0,-1.0,-8.0,-4.5,0.0,0.0,0.0
612.0,0.0,0.0,1.0,0.0,-1.0,1.0,-1.0,-8.0,-4.5,0.0,0.0,0.0
613.0,0.0,0.0,1.0,0.0,-1.0,1.0,-1.0,-8.0,-4.5,0.0,0.0,0.0
614.0,0.0,0.0,1.0,0.0,-1.0,1.0,-1.0,-8.0,-4.5,0.0,0.0,0.0
615.0,0.0,0.0,1.0,0.0,-1.0,1.0,-1.0,-8.0,-4.5,0.0,0.0,0.0
616.0,0.0,0.0,1.0,0.0,-0.460000000000054,1.0,-1.0,-8.0,-4.5,0.0,0.0,0.0
617.0,0.0,0.0,1.0,0.0,0.0,1.0,-1.0,-8.0,-4.5,0.0,0.0,0.0
618.0,0.0,0.0,1.0,0.0,0.0,1.0,-1.0,-8.0,-4.5,0.0,0.0,0.0
619.0,0.0,0.0,1.0,0.0,0.0,1.0,-1.0,-8.0,-4.5,0.0,0.0,0.0
620.0,0.0,0.0,1.0,0.0,0.0,1.0,-1.0,-8.0,-4.5,0.0,0.0,0.0
621.0,0.0,0.0,1.0,0.0,0.0,1.0,-1.0,-8.0,-4.5,0.0,0.0,0.7299999999999306
622.0,0.0,0.0,1.0,0.0,0.0,1.0,-1.0,-8.0,-4.5,0.0,0.0,1.0
623.0,0.0,0.0,1.0,0.0,0.0,1.0,-1.0,-8.0,-4.5,0.0,0.0,1.0
624.0,0.0,0.0,1.0,0.0,0.0,1.0,-1.0,-8.0,-3.940000000000049,0.0,0.0,1.0
625.0,0.0,0.0,1.0,0.0,0.0,1.0,-1.0,-7.750000000000064,-3.5,0.0,0.0,1.0
626.0,0.0,0.0,1.0,0.0,0.0,1.0,-1.0,-7.0,-3.5,0.0,0.0,1.0
627.0,0.0,0.0,1.0,0.0,0.0,1.0,-1.0,-7.0,-3.5,0.0,0.0,1.0
628.0,0.0,0.0,1.0,0.0,0.0,1.0,-1.0,-7.0,-3.5,0.0,0.0,1.0
629.0,0.0,0.0,1.0,0.0,0.0,1.0,-1.0,-7.0,-3.5,0.0,0.0,1.0
630.0,0.0,0.0,1.0,0.0,0.0,0.10000000000002562,-1.0,-7.0,-3.5,0.0,0.0,1.0
631.0,0.0,0.0,1.0,0.0,0.0,0.0,-1.0,-7.0,-3.5,0.0,0.0,1.0
632.0,0.0,0.0,1.0,0.0,0.0,0.0,-1.0,-7.0,-3.5,0.0,0.0,1.0
633.0,0.0,0.0,1.0,0.0,0.0,0.0,-1.0,-7.0,-3.5,0.0,0.0,1.0
634.0,0.0,0.0,1.0,0.0,0.0,0.0,-1.0,-7.0,-3.5,0.0,0.0,1.0
635.0,0.0,0.0,1.0,0.0,0.0,0.0,-1.0,-7.0,-3.5,0.0,0.0,0.725000000000029
636.0,0.0,0.0,0.3200000000000822,0.0,0.0,0.0,-1.0,-7.0,-3.5,0.0,0.0,0.1600000000000411
637.0,0.0,0.0,0.0,0.0,0.0,0.0,-1.4049999999999756,-7.0,-3.9049999999999754,0.0,0.0,0.0
638.0,0.0,0.0,0.0,0.0,0.0,0.0,-1.9699999999999922,-7.0,-3.530000000000008,0.0,0.0,0.0
639.0,0.0,0.0,0.0,0.0,0.0,0.0,-2.0,-7.0,-3.5,0.0,0.0,0.0
640.0,0.0,0.0,0.0,0.0,0.0,0.0,-2.0,-7.0,-3.5,0.0,0.0,0.0
641.0,0.0,0.0,0.0,0.0,0.0,0.0,-2.0,-7.0,-3.5,0.0,0.0,0.0
642.0,0.0,0.0,0.0,0.0,0.0,0.0,-2.0,-7.0,-3.5,0.0,0.0,0.0
643.0,0.0,0.0,0.0,0.0,0.0,0.0,-2.0,-7.0,-3.5,0.0,0.0,0.0
644.0,0.0,0.0,0.0,0.0,0.0,0.0,-2.0,-7.0,-3.5,0.0,0.0,0.0
645.0,0.0,0.0,0.0,0.0,0.0,0.0,-2.0,-7.0,-3.5,0.0,0.0,0.0
646.0,0.0,0.0,0.0,0.0,0.0,0.0,-2.0,-7.0,-3.5,0.0,0.0,0.4899999999999345
647.0,0.0,0.0,0.0,0.0,0.0,0.0,-1.0,-7.0,-3.5,0.0,0.0,1.0
648.0,0.0,0.0,0.0,0.0,0.0,0.0,-1.0,-7.0,-3.5,0.0,0.0,1.0
649.0,0.0,0.0,0.0,0.0,0.0,0.0,-1.1849999999999834,-7.0,-3.5,0.0,0.0,1.0
650.0,0.0,0.0,0.0,0.0,0.0,0.0,-1.7499999999999678,-7.0,-3.5,0.0,0.0,1.0
651.0,0.0,0.0,0.0,0.0,0.0,0.0,-2.0,-7.0,-3.5,0.0,0.0,1.0
652.0,0.0,0.0,0.0,0.0,0.0,0.0,-2.0,-7.0,-3.5,0.0,0.0,1.0
653.0,0.0,0.0,0.0,0.0,0.0,0.0,-2.0,-6.110000000000028,-3.5,0.0,0.0,1.0
654.0,0.0,0.0,0.0,0.0,0.0,0.0,-2.0,-6.0,-3.5,0.0,0.0,1.0
655.0,0.0,0.0,0.0,0.0,0.0,0.0,-2.0,-6.0,-3.5,0.0,0.0,1.0
656.0,0.0,0.13999999999997173,0.0,0.0,0.0,0.0,-2.0,-6.0,-3.5,0.0,0.0,0.8600000000000283
657.0,0.0,0.7049999999999621,0.0,0.0,0.0,0.0,-2.0,-6.0,-3.5,0.0,0.0,0.2950000000000379
658.0,0.0,1.0,0.0,0.0,0.0,0.0,-2.0,-6.0,-3.5,0.0,0.0,0.0
659.0,0.0,1.0,0.0,0.0,0.0,0.0,-2.0,-6.0,-3.5,0.0,0.0,0.0
660.0,0.0,1.0,0.0,0.0,0.0,0.0,-2.0,-6.0,-3.5,0.0,0.0,0.0
661.0,0.0,0.07000000000001794,0.0,0.0,0.0,0.0,-2.0,-6.0,-3.5,0.0,0.0,0.0
662.0,0.0,0.0,0.0,0.0,0.0,0.0,-2.0,-6.0,-3.5,0.0,0.0,0.0
663.0,0.0,0.0,0.0,0.0,0.0,0.0,-2.0,-6.0,-3.3100000000000795,0.0,0.0,0.0
664.0,0.0,0.0,0.0,0.0,0.0,0.0,-2.0,-6.0,-2.5,0.0,0.0,0.0
665.0,0.0,0.0,0.0,0.0,0.0,0.0,-2.0,-6.0,-2.5,0.0,0.0,0.0
666.0,0.0,0.0,0.0,0.0,0.0,0.0,-2.0,-6.0,-2.5,0.0,0.0,0.0
667.0,0.0,0.0,0.0,0.0,0.0,0.0,-2.0,-6.0,-2.5,0.0,0.0,0.0
668.0,0.0,0.0,0.0,0.0,0.0,0.0,-2.0,-6.0,-2.5,0.0,0.0,0.0
669.0,0.0,0.0,0.0,0.0,0.0,0.0,-2.0,-6.0,-2.5,0.0,0.0,0.0
670.0,0.0,0.0,0.0,0.0,0.0,0.0,-2.0,-6.0,-2.5,0.0,0.0,0.0
671.0,0.0,0.0,0.0,0.0,0.0,0.0,-2.0,-6.0,-2.5,0.0,0.0,0.0
672.0,0.0,0.0,0.0,0.0,0.0,0.0,-2.0,-5.640000000000036,-2.5,0.0,0.0,0.0
673.0,0.0,0.0,0.0,0.0,0.0,0.0,-2.0,-5.0,-2.5,0.0,0.0,0.0
674.0,0.0,0.0,0.0,0.0,0.0,0.0,-2.0,-5.0,-2.5,0.0,0.0,0.0
675.0,0.0,0.0,0.0,0.0,0.0,0.0,-2.0,-5.0,-2.5,0.0,0.0,0.0
676.0,0.0,0.0,0.0,0.0,0.0,0.0,-2.0,-5.0,-2.5,0.0,0.0,0.0
677.0,0.0,0.0,0.0,0.0,0.0,0.0,-2.0,-5.0,-2.5,0.0,0.0,0.0
678.0,0.0,0.0,0.0,0.0,0.0,0.0,-2.0,-5.0,-2.5,0.0,0.0,0.0
679.0,0.0,0.0,0.0,0.0,0.0,0.0,-2.0,-5.0,-2.5,0.0,0.0,0.0
680.0,0.0,0.0,0.0,0.0,0.0,0.0,-2.0,-5.0,-2.5,0.0,0.0,0.0
681.0,0.0,0.0,0.0,0.0,0.0,0.0,-2.0,-5.0,-2.5,0.0,0.0,0.0
682.0,0.0,0.0,0.0,0.0,0.0,0.0,-2.0,-5.0,-2.5,0.0,0.0,0.0
683.0,0.0,0.0,0.0,0.0,0.0,0.0,-2.0,-5.0,-2.5,0.0,0.0,0.0
684.0,0.0,0.0,0.0,0.0,0.0,0.0,-2.0,-5.0,-2.5,0.0,0.0,0.0
685.0,0.0,0.0,0.0,0.0,0.0,0.0,-2.0,-5.0,-1.9750000000000578,0.0,0.0,0.0
686.0,0.0,0.0,0.0,0.0,0.0,0.0,-2.0,-5.0,-1.5,0.0,0.0,0.0
687.0,0.0,0.0,0.0,0.0,0.0,0.0,-2.0,-5.0,-1.5,0.0,0.0,0.0
688.0,0.0,0.0,0.0,0.0,0.0,0.0,-2.0,-4.780000000000036,-1.5,0.0,0.0,0.0
689.0,0.0,0.0,0.0,0.0,0.0,0.0,-2.0,-4.215000000000055,-1.5,0.0,0.0,0.0
690.0,0.0,0.0,0.0,0.0,0.0,0.0,-2.0,-4.0,-1.5,0.0,0.0,0.0
691.0,0.0,0.0,0.0,0.0,0.0,0.0,-2.0,-4.0,-1.5,0.0,0.0,0.0
692.0,0.0,0.0,0.0,0.0,0.0,0.0,-2.0,-4.0,-1.5,0.0,0.0,0.0
693.0,0.04499999999994733,0.0,0.0,0.0,0.0,0.0,-2.0,-4.0,-1.5,0.0,0.0,0.0
694.0,0.609999999999964,0.0,0.0,0.0,0.0,0.0,-2.0,-4.0,-1.5,0.0,0.0,0.0
695.0,1.0,0.0,0.0,0.0,0.0,0.0,-2.0,-4.0,-1.5,0.0,0.0,0.0
696.0,1.0,0.0,0.0,0.0,0.0,0.0,-2.0,-4.0,-1.5,0.0,0.0,0.0
697.0,1.0,0.0,0.0,0.0,0.0,0.0,-2.6099999999999,-4.0,-1.5,0.0,0.0,0.0
698.0,1.0,0.0,0.0,0.0,0.0,0.0,-3.0,-4.0,-1.5,0.0,0.0,0.0
699.0,0.13000000000003342,0.0,0.0,0.0,0.0,0.0,-3.0,-4.0,-1.5,0.0,0.0,0.0
700.0,0.0,0.0,0.0,0.0,0.0,0.0,-3.0,-4.0,-1.5,0.0,0.0,0.0
701.0,0.0,0.0,0.0,0.0,0.0,0.0,-3.0,-4.0,-1.5,0.0,0.0,0.0
702.0,0.0,0.0,0.0,0.0,0.0,0.0,-3.0,-4.0,-1.5,0.0,0.0,0.0
703.0,0.0,0.0,0.0,0.0,0.0,0.0,-3.0,-3.8050000000000392,-1.5,0.0,0.0,0.0
704.0,0.0,0.0,0.0,0.0,0.0,0.0,-3.0,-3.2400000000000615,-0.9800000000001233,0.0,0.0,0.0
705.0,0.0,0.0,0.0,0.0,0.0,0.0,-3.0,-3.0,-0.5,0.0,0.0,0.0
706.0,0.0,0.0,0.0,0.0,0.0,0.0,-3.0,-3.0,-0.5,0.0,0.0,0.0
707.0,0.0,0.0,0.0,0.0,0.0,0.0,-3.0,-3.0,-0.5,0.0,0.0,0.0
708.0,0.0,0.0,0.0,0.0,0.0,0.0,-2.019999999999941,-3.0,-0.5,0.0,0.0,0.0
709.0,0.0,0.0,0.0,0.0,0.0,0.0,-2.5849999999999578,-3.0,-0.5,0.0,0.0,0.0
710.0,0.0,0.0,0.0,0.0,0.0,0.0,-2.850000000000026,-3.0,-0.5,0.14999999999997432,0.0,0.0
711.0,0.0,0.0,0.0,0.0,0.0,0.0,-2.2850000000000366,-3.0,-0.5,0.7149999999999634,0.0,0.0
712.0,0.0,0.0,0.0,0.0,0.0,0.0,-2.0,-3.0,-0.5,1.0,0.0,0.5599999999998869
713.0,0.0,0.0,0.0,0.0,0.0,0.0,-2.0,-3.0,-0.5,1.0,0.0,1.0
714.0,0.0,0.0,0.0,0.0,0.0,0.0,-2.0,-3.0,-0.5,1.0,0.0,1.0
715.0,0.0,0.0,0.0,0.0,0.0,0.0,-2.0,-3.0,-0.5,1.0,0.0,1.0
716.0,0.0,0.0,0.0,0.0,0.0,0.0,-2.0,-2.960000000000054,-0.5,1.0,0.0,0.460000000000054
717.0,0.0,0.0,0.0,0.0,0.0,0.0,-2.0,-2.3950000000000373,-0.5,1.0,0.0,0.0
718.0,0.0,0.0,0.0,0.0,0.0,0.0,-2.0,-2.0,-0.5,1.0,0.0,0.0
719.0,0.0,0.0,0.0,0.0,0.0,0.0,-2.0,-2.0,-0.5,1.0,0.0,0.0
720.0,0.0,0.0,0.0,0.0,0.0,0.0,-2.0,-2.0,-0.5,1.0,0.0,0.0
721.0,0.0,0.0,0.0,0.0,0.0,0.0,-2.0,-2.0,-0.5,1.0,0.0,0.0
722.0,0.0,0.0,0.0,0.0,0.0,0.0,-2.0,-2.0,-0.5,1.0,0.0,0.0
723.0,0.0,0.0,0.0,0.0,0.0,0.0,-2.0,-2.0,-0.5,1.0,0.0,0.0
724.0,0.0,0.0,0.0,0.0,0.0,0.0,-2.0,-2.0,-0.5,1.0,0.0,0.0
725.0,0.0,0.0,0.0,0.0,0.0,0.0,-2.0,-2.0,-0.5,1.0,0.0,0.0
726.0,0.0,0.0,0.0,0.0,0.0,0.0,-2.0,-2.0,-0.5,1.0,0.0,0.0
727.0,0.0,0.0,0.0,0.0,0.0,0.0,-2.0,-2.0,-0.5,1.0,0.0,0.0
728.0,0.0,0.0,0.0,0.0,0.0,0.0,-2.0,-2.0,-0.5,1.0,0.0,0.0
729.0,0.0,0.0,0.0,0.0,0.0,0.0,-2.0,-2.0,-0.5,1.0,0.0,0.0
730.0,0.8999999999999744,0.0,0.0,0.0,0.0,0.0,-2.0,-2.0,-0.5,1.0,0.0,0.0
731.0,1.0,0.0,0.0,0.0,0.0,0.0,-2.0,-2.0,-0.5,1.0,0.0,0.0
732.0,1.0,0.0,0.0,0.0,0.0,0.0,-2.0,-2.0,-0.5,1.0,0.0,0.0
733.0,1.0,0.43499999999991906,0.0,0.0,0.0,0.0,-1.855000000000027,-1.710000000000054,0.3699999999998381,1.0,0.144999999999973,0.289999999999946
734.0,1.0,3.2966666666663453,0.5039999999999117,-0.2799999999999523,0.0,0.5039999999999117,-1.185000000000056,-0.0025000000001769163,4.413333333332995,1.5039999999999116,0.8149999999999441,2.649999999999708
735.0,0.45000000000011564,10.88055555555448,2.739999999999678,-1.5833333333331403,-0.8249999999998265,2.739999999999678,0.4874999999997398,5.018749999999234,15.261249999998272,3.739999999999678,2.762499999999682,8.964523809522962
736.0,0.0,18.92777777777731,5.5866666666664715,-2.7866666666666102,-2.5199999999998766,5.5866666666664715,2.5199999999998766,12.66285714285658,32.60357894736714,6.5866666666664715,5.359999999999836,15.485333333332944
737.0,0.0,19.602500000000067,6.8733333333333,-3.0,-3.0,6.8733333333333,3.0,14.432857142857165,32.218181818182146,7.8733333333333,6.0,15.650000000000077
738.0,-0.4699999999999319,15.730000000000523,6.060000000000136,-3.0,-3.0,6.060000000000136,1.7466666666668527,11.200000000000454,21.127272727274153,7.060000000000136,6.0,12.200000000000454
739.0,-0.46500000000005526,9.150000000000553,5.240000000000143,-2.4650000000000554,-2.0,5.430000000000111,0.46500000000005526,5.720000000000442,6.33500000000105,5.930000000000111,4.930000000000111,6.720000000000442
740.0,0.0,3.9000000000002313,3.800000000000077,-2.0,-1.800000000000077,4.4000000000000385,0.0,1.6000000000001542,-3.4999999999996145,4.800000000000077,3.800000000000077,2.600000000000154
741.0,0.0,1.0050000000000656,3.0,-1.6700000000000437,-1.0,3.6700000000000434,-0.32999999999995633,-0.49499999999993444,-8.324999999999891,4.0,2.8350000000000217,0.6700000000000437
742.0,0.0,-0.6899999999998959,2.5400000000000693,-1.0,-0.7700000000000347,2.5400000000000693,-1.0,-2.343333333333204,-10.689999999999896,3.5400000000000693,2.2700000000000347,-0.6133333333332387
743.0,0.0,-2.3849999999998417,1.4100000000001054,-1.0,-0.20500000000005264,1.7050000000000527,-1.5899999999998946,-4.021666666666542,-11.5,2.7050000000000525,1.7050000000000527,-1.7266666666665946
744.0,0.0,-3.719999999999928,0.640000000000036,-0.28000000000007197,0.0,1.140000000000036,-2.0,-5.219999999999928,-11.140000000000036,2.140000000000036,1.140000000000036,-2.719999999999928
745.0,0.0,-4.0,0.07500000000001927,0.0,0.0,0.15000000000003855,-2.0,-5.924999999999981,-10.575000000000019,2.0,1.0,-3.0
746.0,0.0,-4.0,0.0,0.0,0.0,0.0,-2.0,-6.0,-9.193333333333513,1.020000000000131,0.020000000000131024,-3.0
747.0,0.0,-4.0,0.0,0.0,0.0,0.0,-2.0,-6.0,-7.686666666666796,1.0,0.0,-3.0
748.0,0.0,-4.0,0.0,0.0,0.0,0.0,-2.0,-5.760000000000066,-6.260000000000066,0.7600000000000668,0.0,-2.760000000000067
749.0,0.36999999999991906,-3.8150000000000404,0.0,0.0,0.0,0.0,-2.0,-5.0,-5.31500000000004,0.0,0.0,-2.0
750.0,1.0,-3.2500000000000644,0.0,0.0,0.0,0.0,-2.0,-5.0,-4.500000000000129,0.0,0.0,-2.0
751.0,1.0,-2.6850000000000476,-0.3149999999999525,0.0,0.0,0.0,-2.0,-4.685000000000048,-3.370000000000095,0.0,0.0,-1.6850000000000476
752.0,0.2400000000000616,-2.1200000000000307,-0.8799999999999693,0.0,0.0,0.0,-2.0,-4.120000000000031,-2.6200000000000307,0.0,0.0,-1.1200000000000307
753.0,0.0,-2.0,-1.0,0.0,0.0,0.0,-2.0,-4.0,-2.5,0.0,0.0,-1.0
754.0,0.0,-1.4900000000000617,-1.0,0.0,0.0,0.0,-2.0,-3.9900000000000615,-1.5,0.0,0.0,-0.9900000000000617
755.0,0.07499999999995503,-0.925000000000045,-1.0,0.0,0.0,0.0,-2.0,-3.425000000000045,-1.35000000000009,0.0,0.0,-0.42500000000004495
756.0,0.6399999999999717,-0.3600000000000283,-1.0,0.0,0.0,0.0,-2.0,-3.0,-0.5,0.0,0.0,0.0
757.0,0.7950000000000379,0.0,-1.0,0.0,0.0,0.0,-2.0,-3.0,-0.5,0.0,0.0,0.0
758.0,0.2300000000000591,0.0,-1.0,0.0,0.0,0.0,-2.0,-3.0,-0.5,0.0,0.0,0.0
759.0,0.0,0.0,-0.3300000000000848,0.0,0.0,0.0,-2.0,-3.0,-0.5,0.0,0.0,0.0
760.0,0.0,0.0,0.0,0.0,0.0,0.0,-2.0,-3.0,-0.5,0.0,0.0,0.0
761.0,0.0,0.0,0.0,0.0,0.0,0.0,-2.0,-3.0,-0.5,0.0,0.0,0.0
762.0,0.0,0.0,0.0,0.0,0.0,0.0,-2.0,-3.0,-0.5,0.0,0.0,0.0
763.0,0.0,0.0,0.0,0.0,0.0,0.0,-2.0,-3.0,-0.5,0.0,0.0,0.0
764.0,0.0,0.0,0.0,0.0,0.0,0.0,-2.0,-3.0,-0.5,0.0,0.0,0.0
765.0,0.0,0.0,0.0,0.0,0.0,0.0,-2.0,-3.0,-0.7249999999999647,0.0,0.0,0.0
766.0,0.0,0.0,0.0,0.0,0.0,0.0,-2.0,-3.289999999999946,-1.289999999999946,0.0,0.0,0.0
767.0,0.0,0.0,0.0,0.0,0.0,0.0,-2.0,-3.8549999999999627,-1.5,0.0,0.0,0.35499999999996273
768.0,0.0,0.0,0.0,0.0,0.0,0.0,-2.0,-4.0,-1.5,0.0,0.0,0.9199999999999795
769.0,0.0,0.9699999999998676,0.0,0.0,0.0,0.0,-2.0,-4.0,-1.5,0.0,0.0,1.0
770.0,1.0,1.0,0.0,0.0,0.0,0.0,-2.099999999999897,-4.0,-2.0499999999999488,0.0,0.0,1.0
771.0,0.8850000000000346,1.0,0.0,0.0,0.0,0.0,-3.0,-4.22999999999993,-2.5,0.0,0.0,1.0
772.0,0.32000000000004114,1.0,0.0,0.0,0.0,0.0,-3.0,-5.0,-2.5,0.0,0.0,1.0
773.0,0.0,1.0,0.0,0.0,0.0,0.0,-3.0,-5.0,-2.7449999999999344,0.0,0.0,1.0
774.0,0.0,1.0,0.0,0.0,0.0,0.0,-3.0,-5.0,-3.309999999999951,0.0,0.0,1.0
775.0,0.0,1.0,0.0,0.0,0.0,0.0,-3.0,-5.0,-3.5,0.0,0.0,1.0
776.0,0.0,1.0,0.0,0.0,0.0,0.0,-3.0,-5.0,-3.5,0.0,0.0,1.0
777.0,0.0,1.0,0.0,0.0,0.0,0.0,-3.0,-5.0,-3.5,0.0,0.0,1.0
778.0,0.0,1.0,0.0,0.0,0.0,0.0,-2.9300000000000463,-5.0,-3.5,0.0,0.0,1.0
779.0,0.0,1.0,0.0,0.0,0.0,0.0,-2.3650000000000295,-5.0,-3.5,0.0,0.0,1.0
780.0,0.0,1.0,0.0,0.0,0.0,0.0,-2.0,-5.0,-3.5,0.0,0.0,0.8000000000000386
781.0,0.0,1.0,0.0,0.0,0.0,0.0,-2.0,-5.0,-4.0299999999998795,0.0,0.0,0.23500000000006038
782.0,0.0,1.0,0.0,0.0,0.0,0.0,-2.0,-5.0,-4.5,0.0,0.0,0.0
783.0,0.0,0.21000000000005392,0.0,0.0,0.0,0.0,-1.210000000000054,-5.0,-4.5,0.0,0.0,0.0
784.0,0.0,0.0,0.0,0.0,0.0,0.0,-1.0,-5.0,-4.5,0.0,0.0,0.0
785.0,-1.0,0.0,0.0,0.0,0.0,0.0,-0.9750000000000578,-5.024999999999943,-5.5,0.0,0.0,0.0
786.0,-1.089999999999959,0.0,0.0,0.0,0.0,0.0,-0.4100000000000411,-5.589999999999959,-5.679999999999918,0.0,0.0,0.0
787.0,-1.6549999999999756,0.0,0.3099999999999512,0.0,0.0,0.0,0.0,-6.0,-6.5,0.0,0.0,0.0
788.0,-2.0,0.0,1.0,0.0,0.0,0.0,0.0,-6.0,-6.9399999999999284,-0.43999999999992806,0.0,0.0
789.0,-2.0,0.0,1.0,0.0,-0.5699999999998895,0.0,0.0,-6.0,-7.784999999999945,-1.0,0.0,0.0
790.0,-2.3499999999999615,0.0,1.0,0.0,-1.0,0.0,0.0,-6.699999999999923,-8.699999999999923,-1.0,0.0,-0.34999999999996145
791.0,-2.9149999999999783,0.0,1.0,0.0,-1.0,0.0,0.0,-7.0,-9.414999999999978,-1.8299999999999563,0.0,-0.9149999999999782
792.0,-3.0,0.0,1.0,0.0,-1.0,0.0,0.0,-7.0,-10.459999999999866,-2.0,0.0,-1.0
793.0,-4.0,-0.5449999999999473,1.0449999999999473,0.08999999999989466,-1.0449999999999473,0.0,1.0,-8.0,-11.044999999999947,-2.0899999999998946,-0.08999999999989466,-2.0
794.0,-4.219999999999928,-1.0,1.6099999999999641,1.0,-1.6099999999999641,0.0,1.1099999999999641,-8.219999999999928,-11.719999999999928,-3.0,-1.0,-2.2199999999999283
795.0,-5.0,-1.0,2.0,1.0,-2.0,0.0,1.6749999999999583,-9.0,-12.849999999999916,-3.3499999999999166,-1.0,-3.0
796.0,-5.479999999999866,-1.0,2.0,1.0,-2.0,0.4799999999998664,2.0,-9.479999999999867,-13.739999999999933,-4.0,-1.0,-3.239999999999933
797.0,-6.30499999999995,-1.6099999999999,2.0,1.30499999999995,-2.30499999999995,1.0,2.30499999999995,-10.30499999999995,-14.6099999999999,-4.30499999999995,-1.6099999999999,-3.80499999999995
798.0,-7.239999999999934,-2.0,2.369999999999967,1.8699999999999666,-2.869999999999967,1.0,2.869999999999967,-10.869999999999967,-15.369999999999967,-4.869999999999966,-2.0,-4.739999999999934
799.0,-7.934999999999984,-2.0,2.934999999999983,2.0,-3.0,1.0,3.0,-11.869999999999967,-16.369999999999965,-5.869999999999966,-2.0,-5.0
800.0,-8.999999999999872,-2.9999999999998717,3.0,2.0,-3.4999999999999356,1.0,3.4999999999999356,-12.499999999999936,-16.999999999999936,-6.0,-2.4999999999999356,-5.499999999999936
801.0,-9.564999999999953,-3.0649999999999524,3.0649999999999524,3.0,-4.0,1.0,4.064999999999952,-13.129999999999905,-17.56499999999995,-6.564999999999952,-3.0,-6.064999999999952
802.0,-10.259999999999938,-3.6299999999999693,3.6299999999999693,3.1299999999999693,-4.2599999999999385,1.0,4.629999999999969,-14.129999999999969,-18.12999999999997,-7.129999999999969,-3.1299999999999693,-6.629999999999969
803.0,-11.389999999999922,-4.0,4.0,3.6949999999999608,-5.0,1.0,5.0,-14.694999999999961,-18.5,-7.694999999999961,-3.6949999999999608,-7.0
804.0,-12.0,-4.2599999999999385,4.0,4.0,-5.0,1.0,5.2599999999999385,-15.0,-18.759999999999938,-8.259999999999938,-4.0,-7.2599999999999385
805.0,-12.64999999999991,-4.824999999999955,4.0,4.64999999999991,-5.64999999999991,1.0,5.824999999999955,-15.64999999999991,-19.324999999999957,-8.824999999999955,-4.324999999999955,-7.824999999999955
806.0,-13.389999999999972,-5.389999999999972,4.779999999999943,5.0,-6.0,1.0,6.0,-16.0,-19.5,-9.389999999999972,-4.889999999999972,-8.389999999999972
807.0,-13.95499999999993,-5.95499999999993,5.0,5.0,-6.0,1.0,6.90999999999986,-16.90999999999986,-19.5,-9.95499999999993,-5.0,-8.95499999999993
808.0,-14.039999999999882,-6.019999999999941,5.0,6.0,-7.0,0.4800000000000591,7.0,-17.0,-19.5,-10.019999999999941,-5.039999999999882,-9.019999999999941
809.0,-15.0,-6.584999999999957,5.0,6.084999999999957,-7.0,0.0,7.1699999999999156,-17.0,-19.415000000000042,-10.584999999999958,-6.0,-9.584999999999958
810.0,-15.0,-7.0,5.149999999999975,6.649999999999975,-7.299999999999948,0.0,8.0,-17.0,-18.700000000000053,-11.0,-6.0,-10.0
811.0,-15.429999999999927,-7.0,5.714999999999963,7.0,-8.0,0.0,8.0,-17.0,-17.785000000000036,-11.0,-6.0,-10.0
812.0,-16.0,-7.559999999999887,6.0,7.279999999999943,-8.0,0.0,8.279999999999944,-17.0,-16.753333333333487,-11.0,-6.559999999999887,-10.0
813.0,-16.0,-8.0,6.0,7.84499999999996,-8.34499999999996,0.0,8.84499999999996,-16.31000000000008,-15.246666666666771,-11.68999999999992,-7.0,-10.0
814.0,-16.0,-8.0,6.0,8.0,-8.909999999999977,0.0,9.0,-15.590000000000023,-13.74000000000006,-12.0,-7.0,-10.0
815.0,-16.0,-8.0,6.0,8.0,-9.0,0.0,9.0,-15.025000000000068,-12.233333333333517,-11.050000000000136,-7.0,-10.0
816.0,-16.0,-8.0,6.0,8.539999999999946,-9.0,0.0,9.0,-13.920000000000108,-10.324000000000238,-11.0,-7.0,-10.0
817.0,-16.0,-8.0,6.0,9.0,-9.0,0.0,9.0,-12.790000000000074,-7.817000000000169,-11.0,-7.0,-10.0
818.0,-16.0,-8.0,6.3399999999999155,9.0,-9.339999999999915,0.0,9.0,-11.660000000000085,-5.376666666666824,-11.0,-7.0,-10.0
819.0,-16.0,-8.0,7.0,9.0,-10.0,0.0,9.0,-10.686666666666754,-3.618333333333495,-10.530000000000136,-7.0,-9.765000000000068
820.0,-16.0,-7.700000000000052,7.0,9.0,-10.0,0.0,9.0,-9.533333333333468,-2.300000000000117,-10.0,-7.0,-9.20000000000005
821.0,-16.0,-7.135000000000034,7.0,9.0,-10.0,0.0,9.0,-8.270000000000069,-0.6166666666667844,-9.270000000000069,-7.0,-9.0
822.0,-15.140000000000036,-7.0,7.0,9.859999999999964,-10.0,0.0,9.0,-7.140000000000036,0.9799999999999554,-8.570000000000018,-7.0,-8.140000000000036
823.0,-15.0,-7.0,7.0,10.0,-10.0,0.0,9.0,-6.0100000000001295,2.4866666666664936,-8.005000000000065,-7.0,-8.0
824.0,-14.94000000000005,-6.940000000000049,7.0,10.0,-10.0,0.0,9.0,-4.880000000000098,3.3266666666665405,-7.440000000000049,-6.0,-7.440000000000049
825.0,-14.375000000000032,-6.375000000000032,7.0,10.0,-10.0,0.0,8.875000000000032,-3.7500000000000644,4.749999999999936,-6.750000000000064,-6.0,-7.0
826.0,-14.0,-6.0,7.0,10.0,-10.0,0.0,8.31000000000004,-2.6200000000000796,5.87999999999992,-5.62000000000008,-6.0,-6.62000000000008
827.0,-13.745000000000063,-6.0,7.0,9.745000000000063,-10.0,0.0,8.0,-1.745000000000063,6.754999999999937,-5.0,-5.490000000000126,-6.0
828.0,-13.180000000000046,-6.0,7.0,9.180000000000046,-10.0,0.0,8.0,-0.8600000000000925,7.639999999999907,-4.360000000000093,-5.0,-5.680000000000046
829.0,-12.230000000000059,-5.230000000000059,7.0,9.0,-10.0,0.0,7.6150000000000295,-0.11500000000002952,8.769999999999941,-3.6150000000000295,-5.0,-5.1150000000000295
830.0,-12.0,-5.0,7.0,9.0,-10.0,0.0,7.050000000000071,0.0,9.44999999999993,-3.050000000000071,-5.0,-5.0
831.0,-11.48500000000006,-4.985000000000061,6.985000000000061,9.0,-9.970000000000121,0.0,6.9700000000001205,0.5149999999999396,9.529999999999879,-1.9850000000000603,-4.0,-4.485000000000061
832.0,-10.920000000000044,-4.4200000000000434,6.4200000000000434,9.0,-9.0,0.0,6.0,1.0,10.5,-1.3400000000000873,-3.9200000000000434,-4.0
833.0,-10.355000000000027,-4.0,6.0,8.855000000000027,-9.0,0.0,5.710000000000054,1.0,10.5,-0.35500000000002696,-3.355000000000027,-3.855000000000027
834.0,-10.0,-4.0,6.0,8.290000000000036,-9.0,0.0,5.0,1.0,10.5,0.0,-3.0,-3.2900000000000373
835.0,-9.450000000000117,-3.4500000000001156,6.0,8.0,-9.0,0.0,4.450000000000116,1.0,10.5,0.0,-3.0,-3.0
836.0,-8.660000000000041,-3.0,6.0,8.0,-8.660000000000041,0.0,3.320000000000082,1.0,10.5,0.6799999999999178,-2.320000000000082,-3.0
837.0,-8.095000000000024,-3.0,6.0,8.0,-8.095000000000024,0.0,2.5950000000000246,1.0,9.69000000000005,1.4049999999999756,-2.0,-2.5950000000000246
838.0,-8.0,-3.0,6.0,7.060000000000136,-8.0,0.0,2.030000000000068,1.0,9.5,1.9699999999999318,-2.0,-2.030000000000068
839.0,-7.465000000000055,-2.4650000000000554,5.965000000000055,7.0,-8.0,0.0,1.4300000000001105,0.0,9.5,2.5349999999999446,-1.4650000000000551,-2.0
840.0,-6.9000000000000385,-2.0,5.4000000000000385,7.0,-7.9000000000000385,0.0,0.40000000000003855,0.0,9.300000000000077,3.199999999999923,-1.0,-2.0
841.0,-6.3350000000000435,-2.0,5.0,6.8350000000000435,-7.3350000000000435,0.0,0.0,0.0,8.5,4.0,-1.0,-1.670000000000086
842.0,-6.0,-2.0,5.0,6.27000000000007,-7.0,0.0,0.0,0.0,8.5,4.459999999999861,-0.5400000000001388,-1.0
843.0,-5.7050000000000525,-2.0,5.0,6.0,-7.0,0.0,-0.5899999999998947,0.0,8.5,5.0,0.0,-1.0
844.0,-5.140000000000036,-2.0,4.640000000000036,6.0,-6.640000000000036,0.0,-1.719999999999928,0.0,8.5,5.359999999999964,0.0,-1.0
845.0,-4.575000000000019,-2.0,4.075000000000019,6.0,-6.075000000000019,0.0,-2.4249999999999807,0.0,8.5,5.924999999999981,0.0,-1.0
846.0,-4.0100000000000655,-2.0,4.0,5.020000000000131,-6.0,0.0,-2.9899999999999345,0.0,8.5,6.0,0.0,-0.020000000000131024
847.0,-3.8900000000001,-2.0,4.0,5.0,-5.8900000000001,0.0,-4.05499999999995,0.5549999999999499,8.5,6.55499999999995,0.0,0.0
848.0,-2.880000000000033,-1.8800000000000334,3.760000000000067,5.0,-5.0,0.0,-4.739999999999934,1.1199999999999666,8.5,7.0,0.0,0.0
849.0,-2.3150000000000404,-1.3150000000000404,3.0,4.630000000000081,-5.0,0.0,-5.68499999999996,1.6849999999999596,8.5,7.0,0.0,0.0
850.0,-2.0,-1.0,3.0,4.0,-4.500000000000129,0.0,-6.249999999999936,2.2499999999999356,8.5,7.499999999999871,0.0,0.0
851.0,-1.3700000000000951,-1.0,2.6850000000000476,4.0,-4.0,0.0,-7.129999999999905,2.8149999999999524,8.5,8.0,0.629999999999905,0.0
852.0,-0.6200000000000307,-1.0,2.1200000000000307,4.0,-3.6200000000000307,0.0,-7.879999999999969,3.3799999999999693,8.120000000000031,8.0,1.0,0.0
853.0,-0.055000000000071325,-1.0,2.0,3.1100000000001424,-3.055000000000071,0.0,-8.889999999999857,3.944999999999929,7.555000000000072,8.0,1.0,0.0
854.0,0.0,-0.9900000000000617,1.9800000000001234,3.0,-2.9900000000000615,0.0,-10.0,4.0099999999999385,7.5,8.019999999999877,1.0,0.0
855.0,0.14999999999991007,-0.42500000000004495,1.0,2.925000000000045,-2.425000000000045,0.0,-10.14999999999991,4.574999999999955,7.5,9.0,1.0,0.0
856.0,1.0,0.0,0.8600000000000283,2.3600000000000283,-1.8600000000000283,0.0,-11.279999999999944,5.0,7.220000000000057,9.0,1.0,0.0
857.0,1.4099999999999242,0.0,0.2950000000000379,2.0,-1.295000000000038,0.0,-12.409999999999924,5.0,6.5,9.0,1.0,0.0
858.0,2.0,0.0,0.0,2.0,-1.0,0.0,-13.0,5.0,6.5,9.0,1.539999999999882,0.0
859.0,2.0,0.0,0.0,1.330000000000085,-1.0,0.0,-13.669999999999915,5.0,6.5,9.0,2.0,0.6699999999999152
860.0,2.0,0.0,0.0,1.0,-0.20000000000005136,0.0,-14.79999999999995,5.0,6.5,9.0,2.0,1.0
861.0,2.9299999999998625,0.0,0.0,1.0,0.0,0.0,-15.46499999999993,5.0,5.570000000000137,9.0,2.0,1.0
862.0,3.0,0.0,0.0,0.9700000000000565,0.0,-0.05999999999988695,-16.029999999999944,5.0,5.5,9.0,2.0,1.059999999999887
863.0,3.0949999999999602,0.0,-0.09499999999996017,0.40500000000003983,0.0,-1.0,-16.68999999999992,5.0,5.5,9.0,2.0,2.0
864.0,3.659999999999956,0.0,-0.6599999999999563,0.0,0.0,-1.0,-17.659999999999958,5.0,5.5,9.0,2.0,2.0
865.0,4.0,0.0,-1.0,0.0,0.0,-1.0,-18.0,5.0,5.050000000000141,9.0,2.4499999999998585,2.4499999999998585
866.0,4.0,0.0,-1.0,0.0,0.579999999999892,-1.0,-18.57999999999989,4.420000000000108,4.5,9.0,3.0,3.0
867.0,4.354999999999963,0.0,-1.0,0.0,1.0,-1.0,-19.0,4.0,4.5,9.0,3.0,3.0
868.0,4.9199999999999795,0.41999999999997945,-1.4199999999999795,0.0,1.0,-1.0,-19.839999999999957,4.0,4.0800000000000205,9.0,3.0,3.0
869.0,5.0,0.9849999999999338,-1.9849999999999337,0.0,1.0,-1.0,-20.0,4.0,3.5150000000000663,9.0,3.0,3.0
870.0,5.549999999999948,1.0,-2.0,-0.09999999999989723,2.0,-1.0,-20.0,3.900000000000103,3.4500000000000512,9.0,3.0,4.0
871.0,6.0,1.0,-2.0,-1.0,2.0,-1.0,-20.0,3.0,2.885000000000035,9.0,3.0,4.0
872.0,6.0,1.0,-2.0,-1.0,2.0,-1.0,-20.0,3.0,2.5,9.0,3.0,4.0
873.0,6.0,1.0,-2.0,-1.0,2.4899999999998688,-1.0,-20.0,3.0,2.5,9.0,3.0,4.0
874.0,6.0,1.0,-2.6199999999999024,-1.3099999999999512,3.0,-1.0,-20.0,3.0,1.8800000000000976,8.69000000000005,3.0,4.0
875.0,6.374999999999968,1.0,-3.0,-1.874999999999968,3.0,-1.0,-19.625000000000032,3.0,1.5,8.125000000000032,3.0,4.0
876.0,6.9399999999999284,1.879999999999856,-3.0,-2.0,3.0,-1.0,-19.060000000000073,3.0,1.5,8.0,3.0,4.0
877.0,7.0,2.0,-3.0,-2.0,3.009999999999874,-1.0,-18.0,3.0,1.5,8.0,3.0,4.0
878.0,7.0,1.9300000000000463,-3.0,-2.0,4.0,-1.0,-17.860000000000092,3.0,1.5,8.0,3.0,4.0
879.0,7.0,1.3650000000000295,-3.0,-2.0,4.0,-1.0,-16.86500000000003,3.0,1.5,7.730000000000059,3.0,4.0
880.0,6.800000000000039,1.0,-3.0,-2.1999999999999615,4.0,-1.0,-16.100000000000076,3.0,1.5,7.0,3.0,4.0
881.0,6.235000000000061,1.0,-3.0,-2.7649999999999397,4.0,-1.0,-15.23500000000006,3.0,1.5,7.0,3.0,4.0
882.0,6.0,1.0,-3.6599999999999127,-3.0,4.0,-1.0,-14.340000000000087,3.0,1.5,7.0,3.0,4.0
883.0,6.0,1.0,-4.0,-3.0,4.0,-1.0,-13.605000000000027,3.0,1.894999999999973,7.0,3.0,4.0
884.0,6.0,1.0,-4.0,-3.0,4.0,-1.0,-12.580000000000139,3.0,2.4599999999999307,7.0,3.0,4.0
885.0,6.0,1.0,-4.0,-3.0,4.0,-1.0,-11.950000000000115,3.0,2.5,6.0,3.0,3.9500000000001156
886.0,6.0,1.0,-4.0,-3.0,4.0,-1.0,-10.910000000000041,3.0,2.5,6.0,3.0,3.0
887.0,6.0,1.1549999999999556,-4.0,-3.0,4.0,-1.0,-10.345000000000045,3.0,2.5,6.0,3.0,3.0
888.0,6.0,1.719999999999928,-4.0,-3.0,4.0,-1.0,-9.560000000000144,3.0,2.939999999999856,6.0,3.0,3.0
889.0,6.0,2.0,-4.0,-3.0,4.0,-1.0,-9.0,3.0,3.5,6.0,3.0,3.0
890.0,6.0,2.0,-3.300000000000077,-3.0,4.0,-1.0,-8.300000000000077,3.0,3.5,6.0,3.0,3.0
891.0,5.585000000000022,2.0,-3.0,-3.0,4.0,-1.0,-8.0,3.4149999999999783,3.5,5.1700000000000434,3.0,3.0
892.0,5.020000000000067,2.0,-3.0,-3.0,4.0,-1.0,-7.040000000000133,3.9799999999999334,3.5,5.0,3.0,3.0
893.0,5.0,2.0,-3.0,-3.0,4.0,-0.9100000000001054,-6.9550000000000525,4.0,3.5449999999999475,5.0,3.0,3.0
894.0,5.0,2.0,-3.0,-3.0,4.0,0.0,-6.390000000000036,4.0,4.109999999999964,5.0,3.0,3.0
895.0,5.0,2.0,-3.0,-3.0,4.0,0.0,-5.825000000000042,4.0,4.5,5.0,3.0,3.0
896.0,5.0,2.0,-3.0,-3.0,4.0,0.0,-5.260000000000066,4.0,4.5,5.0,3.0,3.0
897.0,5.0,2.0,-3.0,-3.0,4.0,0.0,-5.0,4.0,4.5,5.0,3.0,3.0
898.0,5.0,2.0,-3.0,-3.0,4.0,0.0,-4.630000000000034,4.0,4.5,5.0,3.0,3.0
899.0,5.0,2.0,-3.0,-3.0,4.0,0.0,-4.065000000000072,4.0,4.5,4.565000000000072,3.0,3.0
900.0,4.000000000000129,2.0,-3.0,-3.0,4.0,0.0,-4.0,4.0,4.5,4.000000000000064,3.0,3.0
901.0,4.0,2.0,-2.870000000000095,-3.0,4.0,0.0,-3.870000000000095,4.0,4.5,4.0,3.0,3.0
902.0,4.0,2.2599999999999385,-2.0,-3.0,4.0,0.0,-3.0,4.0,4.5,4.0,3.0,3.0
903.0,4.0,2.8050000000000392,-2.0,-3.0,3.6100000000000785,0.0,-3.0,4.0,4.5,4.0,3.0,3.0
904.0,4.0,2.2400000000000615,-2.0,-3.0,3.0,0.0,-3.0,4.0,4.5,4.0,3.0,3.0
905.0,4.0,2.0,-2.0,-3.0,3.0,0.0,-2.675000000000045,4.0,4.5,4.0,3.0,3.0
906.0,4.0,2.0,-2.0,-3.0,3.0,0.0,-2.1100000000000283,4.389999999999972,4.5,4.0,3.0,3.0
907.0,4.0,2.0,-2.0,-3.0,3.0,0.0,-2.0,4.95499999999993,5.40999999999986,4.0,3.0,3.0
908.0,4.0,2.0,-2.0,-3.0,3.0,0.0,-2.0,5.0,5.5,4.0,3.0,3.0
909.0,4.0,2.169999999999915,-2.0,-3.0,3.0,0.0,-2.0,5.0,5.5,4.0,3.0,3.169999999999915
910.0,3.70000000000009,3.0,-1.7000000000000899,-3.0,3.0,0.0,-2.0,5.0,5.5,4.0,3.0,4.0
911.0,3.0,3.0,-1.0,-3.0,3.0,0.0,-1.7850000000000732,5.0,5.5,4.0,3.0,4.0
912.0,3.0,3.0,-1.0,-3.0,3.0,0.0,-1.2200000000000566,5.0,5.5,4.0,3.0,4.0
913.0,3.0,3.0,-1.0,-3.0,3.0,0.0,-1.0,5.0,5.5,4.0,3.0,4.0
914.0,3.0,3.0,-1.0,-3.0,2.590000000000023,0.0,-1.0,5.0,5.5,4.0,3.0,4.0
915.0,3.0,3.0,-1.0,-3.0,2.0250000000000674,0.0,-1.0,5.0,5.5,4.0,3.0,3.050000000000135
916.0,3.0,3.0,-1.0,-3.0,2.0,0.0,-1.0,5.0,5.5,4.0,3.0,3.0
917.0,3.0,3.0,-1.0,-3.0,2.0,0.0,-1.0,5.0,5.5,4.0,3.0,3.0
918.0,3.0,3.0,-1.0,-3.0,2.0,0.0,-1.0,5.0,5.5,4.0,3.0,3.0
919.0,3.0,3.0,-1.0,-3.0,2.0,0.0,-1.0,5.0,5.5,4.0,3.0,3.0
920.0,3.0,3.0,-1.0,-3.0,2.0,0.0,-0.4000000000001027,5.0,5.5,4.0,3.0,3.0
921.0,3.0,3.0,-1.0,-3.0,2.0,0.0,0.0,5.0,5.5,4.0,3.0,3.0
922.0,3.0,3.0,-1.0,-3.0,2.0,0.8599999999998535,0.0,5.0,5.5,4.0,3.0,3.0
923.0,3.0,3.0,-0.5050000000000655,-3.0,2.0,1.0,0.0,5.0,5.5,4.0,3.0,3.4949999999999344
924.0,3.0,3.0,0.0,-3.0,2.0,1.0,0.0,5.0,5.5,4.0,3.0,3.8800000000000976
925.0,3.0,3.0,0.0,-3.0,2.0,1.0,0.0,5.0,5.5,4.0,3.0,3.0
926.0,3.0,3.0,0.0,-3.0,2.0,1.0,0.0,5.0,5.5,4.0,3.0,3.0
927.0,3.0,3.0,0.0,-3.0,2.0,1.0,0.0,5.0,5.5,4.0,3.0,3.0
928.0,3.0,3.0,0.0,-3.0,2.0,1.0,0.0,5.0,5.5,4.0,3.0,3.0
929.0,3.0,3.0,0.0,-3.0,2.0,1.0,0.0,5.0,5.5,3.6150000000000295,3.0,3.0
930.0,3.0,3.0,0.0,-3.0,2.0,1.0,0.0,5.0,4.600000000000142,3.050000000000071,3.0,3.0
931.0,3.5149999999999397,3.0,0.0,-3.0,2.0,1.0,0.0,5.0,4.5,3.0,3.0,3.0
932.0,4.0,3.0,0.0,-3.0,2.0,1.0,0.0,5.0,4.5,3.0,3.0,3.0
933.0,4.0,3.0,0.0,-3.0,2.0,1.0,0.0,5.0,4.5,3.0,3.0,3.0
934.0,4.0,3.0,-0.2099999999999255,-3.0,2.0,1.0,0.0,5.0,4.5,3.0,3.0,3.0
935.0,4.0,3.0,-0.7749999999999422,-3.0,2.0,0.45000000000011564,0.0,5.0,4.5,3.0,3.0,3.0
936.0,4.0,3.0,-1.0,-3.0,2.0,0.0,0.0,5.0,4.5,3.0,3.0,3.0
937.0,4.0,3.0,-1.0,-3.0,2.0,0.0,0.0,4.190000000000049,4.5,3.0,3.0,3.0
938.0,4.0,3.0,-1.0,-3.0,2.0,0.0,0.0,4.0,4.5,3.0,2.0600000000001364,3.0
939.0,4.0,3.0,-1.0,-3.0,2.0,0.0,0.0,4.0,4.5,3.0,2.0,3.0
940.0,4.0,3.0,-1.0,-3.0,2.0,0.0,0.0,4.0,4.5,3.0,2.0,3.0
941.0,4.0,3.0,-1.0,-3.0,2.0,0.0,0.0,4.0,4.5,3.0,2.0,3.0
942.0,4.0,2.7700000000000693,-1.0,-3.0,2.0,0.0,0.0,4.0,4.5,3.0,2.0,3.0
943.0,4.0,2.2050000000000525,-1.0,-3.0,2.0,0.0,0.0,4.0,4.5,3.0,2.0,3.0
944.0,4.0,2.0,-1.0,-3.0,2.0,0.0,0.0,4.0,4.140000000000036,3.0,2.0,3.0
945.0,4.0,2.0,-1.0,-3.0,2.0,0.0,0.0,4.0,3.575000000000074,3.0,2.0,3.0
946.0,4.0,2.0,-1.0,-3.0,2.0,0.0,0.0,4.0,3.5,3.0,2.0,3.0
947.0,4.0,2.0,-1.0,-3.0,2.0,0.0,0.0,4.0,3.5,3.0,2.0,3.0
948.0,4.0,2.0,-1.0,-3.0,2.0,0.0,0.0,4.0,3.5,2.880000000000033,2.0,3.0
949.0,4.0,2.0,-1.0,-3.0,2.0,0.0,0.0,4.0,3.5,2.3150000000000404,2.0,3.0
950.0,4.0,2.0,-1.0,-3.0,2.0,0.0,0.0,4.0,3.5,2.0,2.0,3.0
951.0,4.0,2.0,-1.0,-3.0,2.0,0.0,0.0,4.0,3.5,2.0,2.0,3.0
952.0,4.0,2.0,-1.0,-3.0,2.0,0.0,0.0,4.0,3.5,2.0,2.0,3.0
953.0,4.0,2.0,-1.0,-3.0,2.0,0.0,0.0,4.0,3.5,2.0,2.0,3.0
954.0,4.0,2.0,-1.0,-3.0,2.0,0.0,0.0,4.0,3.5,2.0,2.0,3.0
955.0,4.0,2.0,-1.0,-3.0,2.0,0.0,0.0,4.0,3.5,2.0,2.0,3.0
956.0,4.0,2.0,-1.0,-3.0,2.0,0.0,0.0,4.0,3.5,2.0,2.0,3.0
957.0,3.5900000000001517,2.0,-1.0,-3.0,2.0,0.0,0.0,4.0,3.5,2.0,2.0,3.0
958.0,3.0,2.0,-1.0,-3.0,2.0,0.0,0.0,4.0,3.5,2.0,2.0,3.0
959.0,3.0,2.0,-1.0,-3.0,2.0,0.0,0.0,4.0,3.5,2.0,2.0,3.0
960.0,3.0,2.0,-1.0,-3.0,2.0,0.0,0.0,4.0,3.5,2.0,2.0,3.0
961.0,3.0,2.0,-1.0,-3.0,2.0,0.0,0.0,4.0,3.5,2.0,2.0,3.0
962.0,3.0,2.0,-1.0,-3.0,2.0,0.0,0.0,4.0,3.5,2.0,2.0,3.0
963.0,3.0,2.0,-1.0,-3.0,2.0,0.0,0.0,4.0,3.5,2.0,2.0,3.0
964.0,2.840000000000044,2.0,-1.0,-3.0,2.0,0.0,0.0,4.0,3.5,2.0,2.0,3.0
965.0,2.2750000000000705,2.0,-1.0,-2.5500000000001415,2.0,0.0,0.0,4.0,3.5,2.0,2.0,3.0
966.0,2.0,2.0,-1.0,-2.0,2.0,0.0,0.0,4.0,3.5,2.0,2.0,3.0
967.0,2.0,1.6450000000000373,-1.0,-2.0,2.0,0.0,0.0,4.0,3.5,2.0,2.0,3.0
968.0,2.0,1.5,-1.0,-2.0,2.0,0.0,0.0,4.0,3.5,2.0,2.0,3.0
969.0,2.0,1.984999999999932,-1.0,-2.0,2.0,0.0,0.0,4.0,3.5,2.0,2.0,3.0
970.0,2.0,1.0,-0.45000000000005136,-2.0,2.0,0.0,0.0,4.0,3.5,2.0,2.0,3.0
971.0,2.0,1.0,0.0,-2.0,2.0,0.0,0.0,4.0,3.5,2.0,2.0,3.0
972.0,2.179999999999959,1.0,0.0,-2.0,2.0,0.0,0.0,4.0,3.5,2.0,2.0,2.820000000000041
973.0,2.7449999999999344,1.2449999999999344,-0.489999999999869,-2.0,2.0,0.0,0.0,4.0,3.5,2.0,2.0,2.2550000000000656
974.0,3.0,1.8099999999999512,-1.0,-2.0,2.0,0.0,0.0,4.0,3.5,2.0,2.0,2.0
975.0,3.0,2.0,-1.0,-2.0,2.0,0.0,0.0,4.0,3.5,2.0,2.0,2.0
976.0,3.0,2.0,-1.0,-2.0,2.0,0.0,0.0,4.0,3.5,2.0,2.0,2.0
977.0,3.0,2.0,-1.0,-2.0,2.0,0.0,0.0,4.0,3.5,2.0,2.0,2.0
978.0,3.0,2.0,-1.0,-2.0,2.0,0.0,0.0,4.0,3.5,2.0,2.0,2.0
979.0,3.0,1.7300000000000937,-1.0,-2.0,2.0,0.0,0.0,4.0,3.2300000000000937,2.0,1.8650000000000468,2.0
980.0,3.0,1.0,-1.0,-2.0,2.0,0.0,0.0,4.0,2.5,1.6000000000001542,1.300000000000077,2.0
981.0,3.0,1.0,-1.0,-2.0,2.0,0.0,0.0,4.0,2.5,1.0,1.0,2.0
982.0,3.0,1.0,-1.0,-2.0,2.0,0.0,0.0,4.0,2.5,1.0,1.0,2.0
983.0,3.0,1.0,-1.0,-2.0,2.0,0.0,0.0,4.0,2.5,1.0,1.0,2.0
984.0,3.0,1.0,-1.0,-2.0,2.0,0.0,0.0,4.0,2.5,1.0,1.0,2.0
985.0,3.0,1.0,-1.0,-2.0,2.0,0.0,0.0,4.0,2.5,1.0,1.0,2.0
986.0,3.0,1.0,-1.0,-2.0,2.0,0.0,0.0,3.910000000000041,2.5,1.0,1.0,2.0
987.0,3.154999999999956,1.0,-1.0,-2.0,2.0,0.0,0.0,3.345000000000044,2.5,1.0,1.0,2.0
988.0,3.7199999999999283,1.0,-1.0,-2.0,2.0,0.0,0.0,3.0,2.5,1.0,1.0,1.560000000000144
989.0,4.0,1.0,-1.0,-2.0,2.0,0.0,0.0,3.0,2.5,1.0,1.0,1.0
990.0,4.0,1.0,-1.699999999999923,-2.0,2.0,0.0,0.0,3.0,2.5,1.0,1.0,1.0
991.0,4.0,1.0,-2.0,-2.0,2.414999999999925,0.0,0.0,3.0,1.6700000000001505,1.0,1.0,1.0
992.0,4.47999999999993,1.0,-2.0,-2.0,2.9799999999999307,0.0,0.0,3.0,1.5,1.0,1.0,1.0
993.0,5.0,1.0,-2.0,-2.0,3.0,0.0,0.0,3.0,1.5,1.0,1.0,1.0
994.0,5.0,1.0,-2.0,-2.0,3.0,0.0,0.0,3.0,1.5,1.0,1.0,1.0
995.0,5.0,1.0,-2.0,-2.174999999999958,3.0,0.0,0.0,3.0,1.5,1.0,1.0,1.0
996.0,5.0,1.0,-2.0,-2.739999999999933,3.0,0.0,0.0,3.0,1.5,0.5200000000001336,1.0,1.0
997.0,5.0,1.0,-2.0,-3.0,3.0,0.0,0.0,3.0,1.5,0.0,1.0,1.0
998.0,5.0,1.0,-2.0,-3.0,3.0,0.0,0.0,3.0,1.5,0.0,0.6300000000000334,1.0
999.0,4.565000000000072,1.0,-2.0,-3.0,3.0,0.0,0.0,3.0,1.5,0.0,0.06500000000007261,1.0
1000.0,4.000000000000064,1.0,-2.0,-2.5000000000000644,3.0,0.0,0.0,3.0,1.5,0.0,0.0,1.0
1001.0,4.0,1.0,-2.0,-2.0,3.0,0.0,0.0,3.0,1.5,0.0,0.0,1.0
1002.0,4.0,1.0,-2.0,-2.0,3.0,0.0,0.0,3.0,1.5,0.0,0.0,1.0
1003.0,4.0,1.0,-2.0,-2.0,3.0,0.0,0.0,3.0,1.5,0.0,0.0,1.0
1004.0,4.0,1.0,-2.0,-2.0,3.0,0.0,0.0,3.0,1.5,0.0,0.0,1.0
1005.0,4.0,1.0,-2.0,-2.0,3.0,0.0,0.0,3.0,1.5,0.0,0.0,0.3500000000000899
1006.0,4.0,1.0,-2.0,-2.0,3.0,0.0,0.0,3.0,1.5,0.0,0.0,0.0
1007.0,4.0,0.09000000000014008,-2.45499999999993,-2.0,3.0,0.0,0.0,3.0,1.5,0.0,0.0,0.0
1008.0,4.0,0.019999999999940905,-3.0,-2.0,3.0,0.0,0.0,3.0,1.5,0.0,0.0,0.0
1009.0,4.0,0.4150000000000424,-3.0,-2.0,3.0,0.0,0.0,3.0,1.330000000000085,0.0,0.0,0.0
1010.0,4.149999999999955,0.0,-3.0,-2.0,3.0,-0.14999999999995503,0.0,3.0,0.5,0.0,0.0,0.0
1011.0,4.714999999999927,0.0,-3.0,-2.0,3.2149999999999266,-0.7149999999999268,0.0,3.0,0.5,0.0,0.0,0.0
1012.0,5.0,0.0,-3.0,-2.0,3.7799999999999434,-1.0,0.0,3.0,0.5,0.0,0.0,0.0
1013.0,5.0,0.0,-3.0,-2.6899999999999205,4.0,-1.0,0.0,3.0,0.5,0.0,0.0,0.0
1014.0,5.409999999999924,0.0,-3.0,-3.0,4.0,-1.0,0.0,3.0,0.5,0.0,0.0,0.0
1015.0,5.9749999999999295,0.47499999999992937,-3.0,-3.0,4.0,-1.0,0.0,3.0,0.5,0.0,0.0,0.0
1016.0,6.0,0.920000000000108,-3.079999999999892,-3.0,4.0,-1.0,0.0,3.0,0.5,0.0,0.0,0.0
1017.0,6.0,0.0,-4.0,-3.0,4.0,-1.0,0.0,3.0,0.5,0.0,0.0,0.0
1018.0,5.6600000000000845,0.0,-4.0,-3.0,4.0,-1.0,0.0,3.0,0.5,0.0,0.0,0.0
1019.0,5.0,0.0,-4.0,-3.0,4.0,-1.0,0.0,3.0,0.5,0.0,0.0,0.0
1020.0,5.0,0.0,-4.0,-3.0,4.0,-1.0,0.0,3.0,0.5,0.0,0.0,0.0
1021.0,5.0,0.0,-4.0,-3.0,4.0,-1.0,0.0,3.0,0.5,0.0,0.0,0.0
1022.0,5.0,0.0,-4.0,-2.1400000000001462,4.0,-1.0,0.4299999999999268,3.0,0.5,0.0,0.0,0.0
1023.0,4.010000000000131,0.0,-4.0,-2.0,4.0,-1.0,0.9949999999999345,3.0,0.5,0.0,0.0,0.0
1024.0,4.0,0.0,-4.0,-2.0,4.0,-1.0,1.0,3.0,0.5,0.0,0.0,0.0
1025.0,4.0,0.0,-4.0,-2.0,4.0,-1.0,1.0,3.0,0.5,0.0,0.0,0.0
1026.0,4.0,0.0,-4.0,-2.0,4.0,-1.0,1.0,3.0,0.5,0.0,0.0,0.0
1027.0,4.0,0.0,-4.0,-2.0,4.0,-1.0,1.0,3.0,0.5,-0.5099999999998741,0.0,0.0
1028.0,4.0,0.0,-4.0,-2.0,4.0,-1.0,1.0,3.0,0.5,-1.0,0.0,0.0
1029.0,4.0,0.0,-4.0,-2.0,4.0,-1.0,1.0,3.0,0.5,-1.0,0.0,0.0
1030.0,4.0,0.0,-4.0,-2.0,4.0,-1.0,1.0,3.0,0.5,-1.0,0.0,0.0
1031.0,4.0,0.0,-4.0,-2.0,4.0,-1.0,1.0,3.0,0.5,-1.0,0.0,0.0
1032.0,4.0,0.0,-4.0,-2.0,4.0,-1.0,1.0,3.0,0.5,-1.0,0.0,0.0
1033.0,4.0,0.0,-4.0,-2.0,4.0,-1.0,1.0,3.0,0.35500000000009124,-1.0,0.0,0.0
1034.0,4.0,0.0,-4.0,-2.0,4.0,-1.0,1.0,3.0,-0.2099999999999255,-1.0,0.0,0.0
1035.0,4.0,0.0,-4.0,-2.0,4.0,-1.0,1.0,3.0,-0.5,-1.0,0.0,0.0
1036.0,4.0,0.0,-4.0,-2.0,4.0,-1.0,1.0,3.0,-0.5,-1.0,0.0,0.0
1037.0,4.0,0.0,-4.0,-2.0,4.0,-1.0,1.0,3.0,-0.5,-1.0,0.0,0.0
1038.0,4.0,0.0,-4.0,-2.0,4.0,-1.0,1.0,3.0,-0.5,-1.0,0.0,0.0
1039.0,3.93,0.0,-4.0,-2.0,4.0,-1.0,1.0,3.0,-0.5,-1.0,-0.535,0.0
1040.0,3.0,0.0,-4.0,-2.0,4.0,-1.0,1.0,3.0,-0.5,-1.0,-1.0,0.0
1041.0,3.0,0.0,-4.0,-2.0,4.0,-1.0,1.0,3.0,-0.5,-1.0,-1.0,0.0
1042.0,3.0,0.0,-3.5400000000001386,-2.0,4.0,-1.0,1.4599999999998612,3.0,-0.5,-1.0,-1.0,0.0
1043.0,3.0,0.0,-3.0,-2.0,3.7050000000000525,-1.0,2.0,3.0,-0.5,-1.0,-1.0,0.0
1044.0,3.0,0.0,-3.0,-2.0,3.140000000000036,-1.0,2.0,3.0,-0.5,-1.0,-1.0,0.0
1045.0,3.0,0.0,-3.0,-1.5750000000000193,3.0,-1.0,2.0,3.0,-0.5,-1.0,-1.0,0.0
1046.0,3.0,0.0,-3.0,-1.0100000000000025,3.0,-1.0,2.0,3.0,-0.5,-1.0,-1.0,0.0
1047.0,3.0,0.0,-3.0,-1.0,3.0,-1.0,2.0,3.0,-0.5,-1.0,-1.0,0.0
1048.0,3.0,0.0,-3.0,-1.0,3.0,-1.0,2.0,3.239999999999805,-0.5,-1.0,-1.0,0.0
1049.0,3.0,0.0,-3.0,-1.0,3.0,-1.0,2.0,4.0,-0.5,-1.0,-1.0,0.0
1050.0,3.0,0.0,-3.0,-1.0,3.0,-1.4999999999998717,2.0,4.0,-0.5,-1.4999999999998717,-1.0,0.0
1051.0,3.3149999999999524,0.0,-3.3149999999999524,-1.0,3.0,-2.0,2.0,4.0,-0.5,-2.0,-1.0,0.0
1052.0,3.8799999999999693,0.0,-3.8799999999999693,-1.0,3.0,-2.0,2.0,4.0,-0.5,-2.0,-1.0,0.0
1053.0,4.0,0.0,-4.0,-1.0,3.8899999999999717,-2.0,2.0,4.0,-0.5,-2.0,-1.0,0.0
1054.0,4.0,0.0,-4.0,-1.0,4.0,-2.0,2.0,4.0,-0.5,-2.0,-1.0,-1.0
1055.0,4.0,0.0,-4.0,-1.0,4.0,-2.0,2.0,4.0,-0.5,-2.0,-1.0,-1.0
1056.0,4.0,0.0,-4.0,-1.0,4.0,-2.0,2.0,4.0,-0.5,-2.0,-1.0,-1.0
1057.0,4.0,0.0,-4.0,-1.0,4.0,-2.0,2.0,4.0,-0.5,-2.0,-1.0,-1.0
1058.0,4.0,0.0,-4.0,-1.0,4.0,-2.0,2.0,4.0,-0.5,-2.0,-1.0,-1.0
1059.0,4.0,0.0,-4.0,-1.0,4.0,-2.0,2.0,4.0,-0.5,-2.0,-1.0,-1.0
1060.0,4.0,0.0,-4.0,-1.0,4.0,-2.0,2.0,4.0,-0.5,-2.0,-1.0,-1.0
1061.0,4.0,0.0,-4.0,-1.0,4.0,-2.0,2.0,4.0,-0.5,-2.0,-1.0,-1.0
1062.0,3.47,0.0,-4.0,-1.0,4.0,-2.0,2.0,4.0,-0.5,-2.0,-1.0,-1.0
1063.0,3.0,0.0,-4.0,-1.0,4.0,-2.0,2.0,4.0,-0.5,-2.0,-1.0,-1.0
1064.0,3.0,0.0,-4.0,-1.0,3.8400000000000873,-2.0,2.0,4.0,-0.5,-2.0,-1.0,-1.0
1065.0,3.0,0.0,-4.0,-1.0,3.2750000000000705,-2.0,2.0,4.2249999999999295,-0.5,-2.0,-1.0,-1.0
1066.0,2.420000000000108,0.0,-4.0,-1.0,3.0,-2.0,2.0,4.789999999999946,-0.5,-2.0,-1.0,-1.0
1067.0,2.0,0.0,-4.0,-1.0,3.0,-2.0,2.0,5.0,-0.5,-2.0,-1.0,-1.0
1068.0,2.0,0.0,-4.0,-1.0,3.0,-2.0,2.0,5.0,-0.5,-2.0,-1.0,-1.0
1069.0,2.0,0.0,-4.0,-1.0,3.0,-2.0,2.0,5.0,-0.5,-2.0,-1.0,-1.0
1070.0,2.0,-0.5499999999998844,-4.0,-1.0,3.0,-2.0,3.0,5.0,-0.5,-2.0,-1.5499999999998844,-1.0
1071.0,2.0,-1.0,-4.0,-1.0,3.0,-2.0,3.0,5.0,-0.5,-2.0,-2.0,-1.0
1072.0,2.0,-1.0,-3.820000000000082,-1.0,3.0,-2.0,3.0,5.0,-0.5,-2.179999999999918,-2.0,-1.0
1073.0,2.0,-1.0,-3.2550000000000656,-1.0,3.0,-2.0,3.0,5.0,-0.5,-2.7449999999999344,-2.0,-1.0
1074.0,2.0,-0.6900000000000488,-3.0,-1.0,3.0,-2.0,3.0,5.0,-0.5,-3.0,-2.0,-1.0
1075.0,2.0,-0.12500000000003209,-3.0,-1.0,3.0,-2.0,3.0,5.0,-0.5,-3.0,-2.0,-1.0
1076.0,2.0,0.0,-3.0,-1.0,3.0,-2.0,3.0,5.439999999999984,-0.5,-3.0,-2.0,-1.0
1077.0,2.0,-0.009999999999999998,-3.0,-1.0,3.0,-2.0,3.0,6.0,-0.5,-3.0,-2.0,-1.0
1078.0,2.0,-1.0,-3.0,-0.9300000000001105,3.0,-2.0,3.0,6.0,-0.43000000000011046,-3.0,-2.0,-1.0
1079.0,2.0,-1.0,-3.0,-0.3650000000000938,3.0,-2.0,3.0,6.0,0.13499999999990622,-3.0,-2.0,-1.0
1080.0,2.0,-1.0,-3.0,0.0,3.0,-2.0,3.0,6.0,0.5,-3.0,-2.0,-1.0
1081.0,1.4700000000001208,-1.0,-3.0,0.0,3.0,-2.0,3.0,6.0,0.5,-3.0,-2.0,-1.0
1082.0,1.0,-1.0,-3.0,0.0,3.0,-2.0,3.0,6.0,0.5,-3.0,-2.0,-1.0
1083.0,1.0,-1.0,-3.0,0.0,2.210000000000054,-2.0,3.789999999999946,6.0,0.5,-3.0,-2.0,-1.0
1084.0,1.0,-1.0,-3.0,0.0,2.0,-2.0,4.0,6.0,0.5,-3.0,-2.0,-1.0
1085.0,1.0,-1.0,-3.0,0.0,2.0,-2.0,4.0,7.0,0.5,-3.0,-2.0,-1.0
1086.0,0.8200000000002107,-1.0,-3.0,0.0,2.0,-2.0,4.0,7.0,0.5,-3.0,-2.0,-1.0
1087.0,0.0,-1.0,-3.0,0.0,2.0,-2.0,4.0,7.0,0.5,-3.0,-2.0,-1.0
1088.0,0.0,-1.0,-3.0,0.0,2.0,-2.0,4.0,7.0,0.5,-3.0,-2.0,-1.0
1089.0,0.0,-1.0,-2.4300000000001107,0.0,2.0,-2.0,4.0,7.0,0.5,-3.0,-2.0,-1.0
1090.0,0.0,-1.0,-2.0,0.0,2.0,-2.0,4.0,7.0,0.5,-3.0,-2.0,-1.0
1091.0,0.0,-1.0,-2.0,0.0,2.0,-1.1700000000000437,4.0,7.0,0.5,-3.0,-2.0,-1.0
1092.0,0.0,-1.0,-2.0,0.0,2.0,-1.0,4.0,7.479999999999995,0.5,-3.0,-2.0,-1.0
1093.0,0.0,-1.0,-2.0,0.0,1.4550000000001169,-1.0,4.0,8.0,1.0449999999998831,-3.0,-2.0,-1.0
1094.0,0.0,-1.0,-2.0,0.0,1.0,-1.0,4.2199999999998,8.0,1.5,-3.0,-2.0,-1.0
1095.0,0.0,-1.0,-2.0,0.0,1.0,-1.0,5.0,8.0,1.5,-3.0,-2.0,-1.0
1096.0,0.0,-1.0,-2.0,0.0,1.0,-1.0,5.0,8.0,1.5,-3.0,-2.0,-1.0
1097.0,0.0,-1.0,-2.0,0.0,1.0,-1.0,5.0,8.0,1.5,-3.0,-2.0,-1.0
1098.0,0.0,-1.0,-2.0,0.0,1.0,-1.0,5.0,8.0,1.5,-3.0,-2.0,-1.0
1099.0,0.0,-1.0,-2.0,0.0,1.0,-1.0,5.0,8.0,1.5,-3.0,-2.0,-1.0
1100.0,0.0,-1.0,-2.0,0.0,1.0,-1.0,5.0,8.0,1.5,-3.0,-2.0,-1.0
1101.0,0.0,-1.0,-2.0,0.0,1.0,-1.0,5.0,8.0,1.5,-3.0,-2.0,-1.0
1102.0,0.0,-1.0,-2.0,0.0,1.0,-1.0,5.0,8.0,1.5,-3.0,-2.0,-1.0
1103.0,0.0,-1.0,-2.0,0.0,1.0,-1.0,5.0,8.0,1.5,-3.0,-2.0,-1.0
1104.0,0.0,-1.0,-1.4800000000001234,0.0,1.0,-1.0,5.0,8.0,1.5,-3.0,-2.0,-1.0
1105.0,0.0,-1.0,-1.0,0.0,1.0,-1.0,5.0,8.0,1.5,-3.0,-2.0,-1.0
1106.0,0.0,-1.0,-1.0,0.0,1.0,-1.0,5.0,8.389999999999972,1.5,-3.0,-2.0,-1.0
1107.0,0.0,-1.0,-1.0,0.0,0.09000000000002306,-1.0,5.0,8.954999999999988,1.5,-3.0,-2.0,-1.0
1108.0,0.0,-1.0,-1.0,0.0,0.0,-1.0,5.0,9.0,1.5,-3.0,-2.0,-1.0
1109.0,0.0,-1.0,-1.0,0.0,0.0,-1.0,5.0,9.0,1.5,-3.0,-2.0,-1.1699999999997868
1110.0,0.0,-1.0,-1.0,0.0,0.0,-1.0,5.0,9.0,1.5,-3.0,-2.0,-2.0
1111.0,0.0,-1.0,-1.0,0.0,0.0,-1.0,5.0,9.0,1.5,-3.0,-2.0,-2.0
1112.0,0.0,-1.0,-1.0,0.0,0.0,-1.0,5.0,9.0,1.5,-3.0,-2.0,-2.0
1113.0,-0.6899999999999203,-1.0,-1.0,0.0,0.0,-1.0,5.0,9.0,1.5,-3.0,-2.0,-2.0
1114.0,-1.0,-1.0,-1.0,0.0,0.0,-1.0,5.0,9.0,2.3199999999999537,-3.0,-2.0,-2.0
1115.0,-1.0,-1.0,-1.0,0.0,0.0,-1.0,5.0,9.0,2.5,-3.0,-2.0,-2.0
1116.0,-1.0,-1.0,-1.0,1.0,0.0,-1.0,5.0,9.0,2.5,-3.0,-2.0,-2.0
1117.0,-1.0,-1.0,-0.8950000000001015,1.0,0.0,-1.0,5.104999999999898,9.0,2.5,-3.0,-2.0,-2.0
1118.0,-1.0,-1.0,-0.3300000000000848,1.0,0.0,-1.0,5.6699999999999156,9.0,2.5,-3.0,-2.0,-2.0
1119.0,-1.0,-1.0,0.0,1.0,0.0,-1.0,6.0,9.0,2.5,-3.0,-2.0,-2.0
1120.0,-1.0,-1.0,0.0,1.0,0.0,-1.0,6.0,9.0,2.5,-3.0,-2.0,-2.0
1121.0,-1.0,-1.0,0.0,1.0,0.0,-1.0,6.0,9.0,2.5,-3.0,-2.0,-2.0
1122.0,-1.0,-1.0,0.0,1.0,0.0,-1.0,6.0,9.0,2.5,-3.0,-2.0,-2.0
1123.0,-1.0,-1.0,0.0,1.0,0.0,-1.0,6.0,9.0,2.5,-3.0,-2.0,-2.0
1124.0,-1.0,-1.0,0.0,1.0,0.0,-1.0,6.0,9.0,2.5,-3.0,-2.0,-2.0
1125.0,-1.0,-1.0,0.0,1.0,0.0,-1.0,6.0,9.0,2.5,-3.0,-2.1249999999999036,-2.0
1126.0,-1.0,-1.0,0.0,1.0,0.0,-1.0,6.0,9.0,2.5,-3.0,-2.6899999999999205,-2.0
1127.0,-1.0,-1.0,0.0,1.0,0.0,-1.0,6.0,9.0,2.5,-3.0,-3.0,-2.0
1128.0,-1.0,-1.0,0.0,1.0,0.0,-1.0,6.0,9.0,2.5,-3.0,-3.0,-2.0
1129.0,-1.0,-1.0,0.0,1.0,0.0,-1.0,6.0,9.0,1.730000000000059,-3.0,-3.0,-2.0
1130.0,-1.0,-1.8999999999999744,0.0,1.0,0.0,-1.0,6.0,9.0,1.5,-3.0,-3.0,-2.0
1131.0,-0.985,-2.0,0.0,1.0,0.0,-1.0,6.0,9.0,1.5,-3.0,-3.0,-3.0
1132.0,-0.4200000000001079,-2.0,0.0,1.0,0.0,-1.0,6.0,9.0,1.5,-3.0,-3.0,-3.0
1133.0,0.0,-2.0,0.0,1.0,0.0,-1.0,6.0,9.0,1.5,-3.0,-3.0,-3.0
1134.0,0.0,-1.580000000000149,0.0,1.0,0.0,-1.0,6.0,9.0,1.5,-3.0,-3.0,-3.0
1135.0,0.0,-1.0,0.0,1.0,0.0,-1.0,6.0,9.0,1.5,-3.0,-3.0,-3.0
1136.0,0.0,-1.0,0.0,1.0,0.0,-1.0,6.0,9.0,1.5,-3.339999999999959,-3.0,-3.0
1137.0,0.0,-1.0,0.0,1.0,0.0,-1.0,6.0,9.0,1.5,-3.9049999999999754,-3.0,-3.0
1138.0,0.0,-1.9399999999999846,0.0,1.0,0.0,-1.0,6.0,9.0,1.5,-4.0,-3.0,-3.0
1139.0,-0.06999999999976106,-2.0,0.0,1.0,0.0,-1.0,6.0,9.0,1.5,-4.0,-3.0,-3.0
1140.0,-1.0,-2.0,0.0,1.0,0.0,-1.0,6.0,9.0,1.5,-4.0,-3.0,-3.0
1141.0,-1.0,-2.0,0.0,1.0,0.0,-1.0,6.0,9.0,1.5,-4.0,-3.0,-3.0
1142.0,-1.0,-2.0,0.0,1.0,0.0,-1.0,6.0,9.0,1.5,-4.0,-3.0,-3.0
1143.0,-1.0,-2.0,0.0,1.0,0.0,-1.0,6.0,9.0,1.5,-4.0,-3.0,-3.0
1144.0,-1.0,-2.0,0.0,1.0,0.0,-1.0,6.0,9.0,1.5,-4.0,-3.0,-3.0
1145.0,-1.8499999999999615,-2.0,0.0,1.0,0.0,-1.0,6.0,9.0,1.5,-4.0,-3.0,-3.0
1146.0,-2.0,-2.0,0.0,1.0,0.0,-1.0,6.0,9.0,1.5,-4.0,-3.0,-3.0
1147.0,-2.0,-2.0,0.0,1.0,0.0,-1.0,6.054999999999886,9.0,1.5,-4.0,-3.0,-3.0
1148.0,-2.0,-2.0,0.0,1.0,0.0,-1.0,6.619999999999902,9.0,1.7399999999998048,-4.0,-3.0,-3.0
1149.0,-2.369999999999838,-2.0,0.0,1.369999999999838,0.0,-1.0,7.0,9.0,2.5,-4.0,-3.0,-3.0
1150.0,-3.0,-2.0,0.0,2.0,-0.24999999999993577,-1.0,7.0,9.0,2.5,-4.0,-3.0,-3.0
1151.0,-3.0,-2.0,0.0,2.0,-0.8149999999999524,-0.6850000000000476,7.0,9.0,2.5,-4.0,-3.0,-3.0
1152.0,-3.0,-2.0,0.0,2.0,-1.0,-0.1200000000000308,7.0,9.0,2.5,-4.0,-3.0,-3.0
1153.0,-3.0,-2.0,0.0,2.0,-1.0,0.0,7.0,9.0,1.6100000000000283,-4.0,-3.0,-3.0
1154.0,-3.0,-2.0,0.0,2.0,-1.0,0.0,7.0,8.49,1.5,-4.0,-3.0,-3.0
1155.0,-3.0,-2.0,0.0,2.0,-1.0,0.0,7.0,8.0,1.5,-4.0,-3.0,-3.0
1156.0,-3.0,-2.0,0.0,2.0,-1.0,0.0,7.0,8.0,1.5,-4.0,-3.0,-3.0
1157.0,-3.0,-2.0,0.0,2.0,-1.0,0.0,7.0,8.0,1.5,-4.0,-3.0,-3.0
1158.0,-3.0,-2.0,0.0,2.0,-1.0,0.0,7.0,8.0,1.5,-4.0,-3.0,-3.0
1159.0,-3.0,-2.0,0.0,2.0,-1.0,0.0,7.0,8.0,1.5,-4.0,-3.0,-3.0
1160.0,-3.0,-2.0,0.0,2.0,-1.0,0.0,7.0,8.0,1.5,-4.0,-3.0,-3.0
1161.0,-3.0,-2.0,0.0,2.0,-1.0,0.0,7.0,8.0,1.5,-4.0,-3.0,-3.0
1162.0,-3.0,-2.0,0.5299999999998792,2.0,-2.0,0.0,7.0,8.0,1.5,-4.0,-3.0,-3.0
1163.0,-3.0,-2.0,1.0,2.0,-2.0,0.0,7.0,8.0,1.5,-4.0,-3.0,-3.0
1164.0,-3.0,-2.0,1.0,2.0,-2.0,0.0,7.0,7.680000000000175,1.5,-4.0,-3.0,-3.0
1165.0,-3.0,-2.0,1.0,2.0,-2.0,0.0,6.550000000000141,7.0,1.5,-4.0,-3.0,-3.0
1166.0,-3.0,-2.0,1.0,2.0,-2.0,0.0,6.0,7.0,1.5,-4.0,-3.0,-3.0
1167.0,-3.0,-2.0,1.0,2.0,-2.0,0.0,6.0,7.0,1.5,-4.0,-3.0,-3.0
1168.0,-3.0,-2.0,1.0,2.0,-2.0,0.0,6.0,7.0,1.5,-4.0,-3.0,-3.0
1169.0,-3.0,-2.0,1.0,2.0,-2.0,0.0,6.0,7.0,1.5,-3.030000000000008,-3.0,-3.0
1170.0,-2.4500000000001156,-1.9000000000002313,1.0,2.0,-2.0,0.0,6.0,6.450000000000116,0.5,-3.0,-3.0,-3.0
1171.0,-2.0,-1.0,1.0,2.0,-1.8850000000000988,0.0,6.0,6.0,0.5,-3.2299999999998024,-3.0,-3.0
1172.0,-2.0,-1.0,0.6400000000001644,2.0,-1.3200000000000822,0.0,6.0,6.0,0.5,-4.0,-3.0,-3.0
1173.0,-2.0,-1.0,0.0,2.0,-1.0,0.0,6.0,6.0,0.5,-4.0,-3.0,-3.0
1174.0,-1.6900000000000488,-1.0,0.0,2.0,-1.0,0.0,5.380000000000098,5.380000000000098,0.5,-3.690000000000049,-3.0,-3.0
1175.0,-1.125000000000032,-1.0,0.0,2.0,-1.0,0.0,5.0,5.0,0.5,-3.125000000000032,-3.0,-3.0
1176.0,-1.0,-1.0,0.0,2.0,-1.0,0.0,5.0,5.0,0.5,-3.0,-3.0,-3.0
1177.0,-1.0,-1.0,0.0,2.0,-1.0,0.0,5.0,5.0,0.5,-3.0,-3.0,-3.0
1178.0,-1.0,-1.0,0.0,2.0,-1.0,0.0,5.0,4.860000000000221,0.5,-3.0,-3.0,-3.0
1179.0,-1.0,-1.0,0.0,1.8650000000000937,-1.0,0.0,5.0,4.0,0.5,-3.0,-3.0,-3.0
1180.0,-1.0,-1.0,0.0,1.300000000000077,-1.0,0.0,5.0,4.0,0.5,-3.0,-3.0,-3.0
1181.0,-1.0,-1.0,0.0,1.0,-1.0,0.0,5.0,4.0,0.5,-3.0,-3.0,-3.0
1182.0,-1.0,-1.0,0.0,1.0,-1.0,0.0,5.0,4.0,0.5,-3.0,-3.0,-3.0
1183.0,-1.0,-1.0,0.0,1.0,-1.0,0.0,5.0,3.605000000000027,0.5,-3.0,-3.0,-3.0
1184.0,-1.0,-1.0,0.0,1.0,-1.0,0.0,5.0,3.0400000000000102,0.5,-3.0,-3.0,-3.0
1185.0,-1.0,-1.0,0.0,1.0,-1.0,0.0,4.975000000000122,3.0,0.47500000000012205,-3.0,-3.0,-3.0
1186.0,-1.0,-1.0,0.0,1.0,-1.0,0.0,4.410000000000105,3.0,-0.08999999999989466,-3.0,-3.0,-3.0
1187.0,-1.0,-1.0,0.0,1.0,-1.0,0.0,4.0,2.690000000000177,-0.5,-3.0,-3.0,-3.0
1188.0,-1.0,-0.5600000000001439,0.0,1.0,-1.0,0.0,4.0,2.0,-0.5,-3.0,-3.0,-2.560000000000144
1189.0,-1.0,0.0,0.0,1.0,-1.0,0.0,4.0,2.0,-0.5,-3.0,-3.0,-2.0
1190.0,-1.0,0.0,0.0,1.0,-1.0,0.0,4.0,2.0,-0.5,-3.0,-3.0,-2.0
1191.0,-1.0,0.0,0.0,1.0,-1.0,0.0,4.0,1.5850000000000217,-0.5,-3.0,-3.0,-2.0
1192.0,-1.0,0.0,0.0,1.0,-1.0,0.0,4.0,1.0200000000000051,-0.5,-3.0,-3.0,-2.0
1193.0,-1.0,0.0,0.0,1.0,-1.0,0.0,4.0,1.0,-0.5,-3.0,-3.0,-2.0
1194.0,-1.0,0.0,0.0,1.0,-1.0,0.0,4.0,1.0,-0.5,-3.0,-3.0,-2.0
1195.0,-1.0,0.0,0.0,1.0,-1.0,0.0,4.0,0.650000000000167,-0.5,-3.0,-3.0,-2.0
1196.0,-1.0,0.0,0.0,1.0,-1.0,0.0,3.5200000000001337,0.0,-0.5,-3.0,-3.0,-2.0
1197.0,-0.39000000000010016,0.0,0.0,1.0,-1.0,0.0,3.0,0.0,-0.5,-3.0,-3.0,-2.0
1198.0,0.0,0.0,0.0,1.0,-0.26000000000006673,0.0,3.0,0.0,-0.5,-3.0,-3.0,-2.0
1199.0,0.0,0.0,0.0,1.0,0.0,0.0,3.0,0.0,-0.5,-3.0,-3.0,-2.0
1200.0,0.0,0.0,0.0,0.0,0.0,0.0,3.0,0.0,-0.5,-3.0,-3.0,-2.0
1201.0,0.0,0.0,0.0,0.0,0.0,0.0,3.0,0.0,-0.5,-3.0,-3.0,-2.0
1202.0,0.0,0.0,0.0,0.0,0.0,0.0,3.0,0.0,-0.5,-3.0,-3.0,-2.0
1203.0,0.0,0.0,0.0,0.0,0.0,0.0,3.0,-0.3899999999998433,-0.5,-3.0,-3.0,-2.0
1204.0,0.0,0.0,0.0,0.0,0.0,0.0,3.0,-1.0,-0.5,-3.0,-3.0,-2.0
1205.0,0.0,0.0,0.0,0.0,0.0,0.0,3.0,-1.0,-0.5,-3.0,-2.35000000000009,-2.0
1206.0,0.0,0.0,0.0,0.0,0.0,0.0,2.2200000000000566,-1.0,-1.2799999999999434,-3.0,-2.0,-2.0
1207.0,0.0,0.0,0.0,0.0,0.0,0.0,2.0,-1.909999999999977,-1.5,-3.0,-2.0,-2.0
1208.0,0.0,0.0,0.0,0.0,0.0,0.0,2.0,-2.0,-1.5,-3.0,-2.0,-2.0
1209.0,0.0,0.0,0.0,0.0,0.0,0.0,2.0,-2.0,-1.5,-3.0,-2.0,-2.0
1210.0,0.0,0.0,0.0,0.0,0.0,0.0,2.0,-2.29999999999982,-1.5,-3.0,-2.0,-2.0
1211.0,0.0,0.0,0.0,0.0,0.0,0.0,2.0,-3.0,-1.5,-3.0,-2.0,-2.0
1212.0,0.0,0.0,0.0,0.0,0.0,0.0,1.4400000000001132,-3.0,-2.059999999999887,-3.0,-2.0,-2.0
1213.0,0.0,0.0,0.0,0.0,0.0,0.0,1.0,-3.3449999999999602,-2.5,-3.0,-2.0,-2.0
1214.0,0.0,0.0,0.0,0.0,0.0,0.0,1.0,-3.909999999999977,-2.5,-3.0,-2.0,-2.0
1215.0,0.0,0.0,0.0,0.0,0.0,0.0,1.0,-4.0,-2.5,-3.0,-2.0,-2.0
1216.0,0.07999999999976362,0.0,0.0,0.0,0.0,0.0,1.0,-4.0,-2.5,-3.0,-2.0,-2.0
1217.0,1.0,0.0,0.0,0.0,0.0,0.0,1.0,-4.209999999999797,-2.6049999999998983,-3.0,-2.0,-2.0
1218.0,1.0,0.0,0.0,0.0,0.0,0.0,1.0,-5.0,-3.169999999999915,-3.0,-2.0,-2.0
1219.0,1.0,0.0,0.0,0.0,0.0,0.0,0.5300000000001361,-5.0,-3.5,-3.0,-2.0,-2.0
1220.0,1.0,0.0,0.0,0.0,0.0,0.0,0.0,-5.0,-3.5,-3.0,-2.0,-2.0
1221.0,1.0,0.0,0.0,0.0,0.0,0.0,0.0,-5.0,-3.5,-3.0,-2.0,-2.0
1222.0,1.0,0.0,0.0,0.0,0.0,0.0,0.0,-5.859999999999964,-3.5,-2.570000000000018,-2.0,-2.0
1223.0,0.010000000000002562,0.0,0.0,0.0,0.0,0.0,0.0,-6.0,-3.5,-2.0050000000000012,-2.0,-2.0
1224.0,0.0,0.0,0.0,0.0,0.0,0.0,0.0,-6.0,-3.5,-2.0,-2.0,-1.8800000000002262
1225.0,0.0,0.0,0.0,0.0,0.0,0.0,0.0,-6.0,-3.5,-2.0,-2.0,-1.0
1226.0,0.0,0.0,0.0,0.0,0.0,0.0,0.0,-6.0,-3.5,-2.0,-2.0,-1.0
1227.0,0.0,0.0,0.0,0.0,0.0,0.0,0.0,-6.509999999999874,-3.5,-2.0,-2.0,-1.0
1228.0,0.0,0.0,0.0,0.0,0.0,0.0,0.0,-7.0,-3.5,-2.0,-2.0,-1.0
1229.0,0.0,0.0,0.0,0.0,0.0,0.0,0.0,-7.0,-3.5,-2.0,-2.0,-1.0
1230.0,0.0,0.0,0.0,0.0,0.0,0.0,0.0,-7.0,-3.5,-2.0,-2.0,-1.0
1231.0,0.0,0.0,0.0,0.0,0.0,0.0,0.0,-7.014999999999875,-3.5,-2.0,-2.0,-1.0
1232.0,0.0,0.0,0.0,0.0,0.0,0.0,0.0,-7.579999999999892,-3.5,-2.0,-2.0,-1.0
1233.0,0.0,0.0,0.0,0.0,0.0,0.0,0.0,-8.0,-3.5,-2.0,-2.0,-1.0
1234.0,0.0,0.0,0.0,0.0,0.0,0.0,0.0,-8.0,-3.5,-2.0,-2.0,-1.0
1235.0,0.0,0.0,0.0,0.0,0.0,0.0,0.0,-8.0,-3.5,-2.0,-2.0,-1.0
1236.0,0.0,0.0,0.0,0.0,0.0,0.0,0.0,-8.0,-3.5,-2.0,-2.0,-1.0
1237.0,0.0,0.0,0.0,0.0,0.0,0.0,0.0,-8.404999999999976,-3.5,-2.0,-2.0,-1.0
1238.0,0.0,0.0,0.0,0.0,0.0,0.0,0.0,-8.969999999999992,-4.439999999999984,-2.0,-2.0,-1.0
1239.0,0.0,0.0,0.0,0.0,0.0,0.0,0.0,-9.0,-4.5,-2.0,-2.0,-1.0
1240.0,0.0,0.0,0.0,0.0,0.0,0.0,0.0,-9.0,-4.5,-2.0,-2.0,-1.0
1241.0,0.0,0.0,0.0,0.0,0.0,0.0,0.0,-9.0,-4.5,-2.0,-2.0,-1.0
1242.0,0.0,0.0,0.0,0.0,0.0,0.0,0.0,-9.0,-4.5,-2.0,-2.0,-1.0
1243.0,0.0,0.0,0.0,0.0,0.0,0.0,0.0,-9.0,-4.5,-2.0,-2.0,-1.0
1244.0,0.0,0.0,0.0,0.0,0.0,0.0,0.0,-9.719999999999928,-4.5,-2.0,-2.0,-1.0
1245.0,0.0,0.0,0.0,0.0,0.0,0.0,0.0,-10.0,-4.5,-2.0,-2.0,-1.0
1246.0,0.0,0.0,0.0,0.0,0.0,0.0,0.0,-10.0,-4.5,-2.0,-2.0,-1.0
1247.0,0.0,0.0,0.0,0.0,0.0,0.0,-0.10999999999977134,-10.0,-4.5,-2.0,-2.0,-1.0
1248.0,0.0,0.0,0.0,0.0,0.0,0.0,-1.0,-10.0,-4.5,-2.0,-2.0,-1.0
1249.0,0.0,0.0,0.0,0.0,0.0,0.0,-1.0,-10.0,-4.5,-2.0,-2.0,-1.0
1250.0,0.0,0.0,0.0,0.0,0.0,0.0,-1.0,-10.499999999999872,-4.5,-2.0,-2.0,-1.0
1251.0,0.3149999999999525,0.0,0.0,0.0,0.0,0.0,-1.0,-11.0,-5.129999999999905,-2.0,-2.0,-1.0
1252.0,0.8799999999999693,0.0,0.0,0.0,0.0,0.0,-1.0,-11.0,-5.5,-2.0,-2.0,-1.0
1253.0,1.0,0.0,0.0,0.0,0.0,0.0,-1.0,-11.0,-5.5,-2.0,-2.0,-1.0
1254.0,1.0,0.0,0.0,0.0,0.0,0.0,-1.0,-11.0,-5.5,-2.0,-2.0,-1.0
1255.0,1.0,0.0,0.0,0.0,0.0,0.0,-1.0,-11.0,-5.5,-2.0,-2.0,-1.0
1256.0,1.0,0.0,0.0,0.0,0.0,0.0,-1.0,-11.0,-5.5,-2.0,-2.0,-1.0
1257.0,1.0,0.0,0.0,0.0,0.0,0.0,-1.0,-11.40999999999985,-5.5,-2.0,-2.0,-1.0
1258.0,1.0,0.0,0.0,0.0,0.0,0.0,-1.0,-12.0,-5.5,-2.0,-2.0,-1.0
1259.0,1.669999999999915,0.0,0.0,0.0,0.0,0.0,-1.0,-12.0,-5.5,-2.0,-2.0,-1.0
1260.0,1.2000000000000512,0.0,0.0,-0.3999999999999743,0.0,0.0,-1.0,-12.0,-5.5,-2.0,-2.0,-1.0
1261.0,1.0,0.0,0.0,-0.964999999999991,0.46499999999999103,0.0,-1.464999999999991,-12.0,-5.5,-2.0,-2.0,-1.0
1262.0,1.0,0.0,0.0,-0.9700000000001208,0.0,0.0,-1.9400000000002415,-12.0,-5.5,-2.0,-2.0,-1.0
1263.0,1.0,0.0,0.0,-0.40500000000010405,0.0,0.0,-1.0,-12.0,-5.5,-2.0,-2.0,-1.0
1264.0,1.0,0.0,0.0,0.0,0.0,0.0,-1.0,-12.0,-5.5,-2.0,-2.0,-1.0
1265.0,1.0,0.0,0.0,0.0,0.0,0.0,-1.0,-12.0,-5.5,-2.0,-2.0,-1.0
1266.0,1.0,0.0,0.0,0.0,0.0,0.0,-1.0,-12.0,-5.5,-2.0,-2.0,-1.0
1267.0,1.0,0.0,0.0,0.0,0.0,0.0,-1.7099999999999254,-12.0,-5.5,-2.0,-2.0,-1.0
1268.0,1.0,0.0,0.0,0.0,0.0,0.0,-2.0,-12.0,-5.5,-2.0,-2.0,-1.0
1269.0,1.0,0.0,0.0,0.0,0.0,0.0,-2.0,-12.0,-5.5,-2.0,-2.0,-1.0
1270.0,1.0,0.0,0.0,-0.04999999999988438,0.04999999999988438,0.0,-2.0,-12.0,-5.5,-2.0,-2.0,-1.0
1271.0,1.0,0.0,0.0,-0.6149999999999011,0.6149999999999011,0.0,-2.0,-12.0,-5.5,-2.0,-2.0,-1.0
1272.0,1.3599999999998356,0.0,0.0,-1.0,1.0,0.0,-2.0,-12.359999999999836,-5.5,-2.0,-2.0,-1.0
1273.0,2.0,0.0,0.0,-1.0,1.0,0.0,-2.0,-13.0,-5.5,-2.0,-2.0,-1.0
1274.0,2.0,0.0,0.0,-1.0,1.0,0.0,-2.0,-13.0,-5.5,-2.0,-2.0,-1.0
1275.0,2.0,0.0,0.0,-1.0,1.0,0.0,-2.0,-13.0,-5.5,-2.0,-2.0,-1.0
1276.0,2.0,0.8799999999999691,-0.8799999999999691,-1.0,1.0,0.0,-2.0,-13.0,-5.5,-2.0,-2.0,-1.0
1277.0,2.0,1.0,-1.0,-1.0,1.0,0.0,-2.0,-13.0,-5.5,-2.0,-2.0,-1.0
1278.0,2.0,1.0,-1.0,-1.0,1.0,0.0,-2.0,-13.0,-5.5,-2.0,-2.0,-1.0
1279.0,2.0,1.0,-1.0,-1.0,1.0,0.0,-2.0,-13.0,-5.5,-2.0,-2.0,-1.0
1280.0,2.0,1.0,-1.0,-1.0,1.0,0.0,-2.0,-13.0,-5.5,-2.0,-2.0,-1.0
1281.0,2.0,1.0,-1.0,-1.0,1.0,0.0,-2.0,-13.0,-5.5,-2.0,-2.0,-1.0
1282.0,2.0,0.34000000000008734,-1.0,-1.0,1.0,0.0,-2.0,-13.0,-5.5,-2.0,-2.0,-1.0
1283.0,2.0,0.0,-1.0,-1.0,1.0,0.0,-2.0,-13.0,-5.5,-2.0,-1.210000000000054,-1.0
1284.0,1.0800000000000205,0.0,-1.0,-1.0,1.0,0.0,-2.0,-13.0,-5.5,-2.0,-1.0,-1.0
1285.0,1.0,0.0,-1.0,-1.0,1.0,0.0,-2.0,-13.0,-5.5,-2.0,-1.0,-1.0
1286.0,1.0,0.0,-0.9100000000001054,-1.0,1.0,0.0,-2.0,-13.0,-5.5,-2.0,-1.0,-1.0
1287.0,1.0,0.0,-0.3450000000000887,-1.0,1.0,0.0,-2.0,-13.0,-5.5,-2.0,-1.0,-1.0
1288.0,1.0,0.0,0.0,-1.0,1.0,0.0,-2.0,-13.0,-5.5,-2.0,-1.0,-1.0
1289.0,1.0,0.0,0.0,-1.0,1.0,0.0,-2.0,-13.0,-5.5,-2.0,-1.0,-1.0
1290.0,1.0,0.0,0.0,-1.0,1.0,0.0,-2.0,-13.0,-5.5,-2.0,-1.0,-1.0
1291.0,1.4149999999999783,0.0,-0.8299999999999563,-1.0,1.0,0.0,-2.0,-13.0,-5.5,-2.0,-1.0,-1.0
1292.0,1.9799999999998714,0.0,-1.0,-1.0,1.0,0.0,-2.0,-13.0,-5.5,-2.0,-1.0,-1.0
1293.0,2.0,0.0,-1.0,-1.0,1.0,0.0,-2.0,-13.0,-5.5,-2.0,-1.0,-1.0
1294.0,2.0,0.2199999999997996,-1.0,-1.0,1.0,0.0,-2.0,-13.0,-5.5,-2.0,-1.0,-1.0
1295.0,2.1749999999999163,1.0,-1.0,-1.0,1.0,0.0,-2.1749999999999163,-13.0,-5.5,-2.0,-1.0,-1.0
1296.0,2.739999999999933,1.0,-1.0,-1.0,1.0,0.0,-2.739999999999933,-13.0,-5.5,-2.0,-1.2399999999999332,-1.0
1297.0,3.0,1.0,-1.0,-1.0,1.0,0.0,-3.0,-13.0,-5.5,-2.0,-1.80499999999995,-1.0
1298.0,3.0,1.0,-1.0,-1.0,1.3699999999999666,0.0,-3.0,-13.0,-5.5,-2.0,-2.0,-1.0
1299.0,3.0,1.0,-1.0,-1.0,1.9349999999999832,0.0,-3.0,-13.0,-5.5,-2.0,-2.0,-1.0
1300.0,3.0,1.0,-1.0,-1.0,2.0,0.0,-3.0,-13.0,-5.5,-2.0,-2.0,-1.0
1301.0,3.0,1.0,-1.0,-1.0,2.0,0.0,-3.0,-13.0,-5.5,-2.0,-2.0,-1.0
1302.0,2.870000000000095,1.0,-1.0,-1.0,2.0,0.0,-3.0,-13.0,-5.5,-2.0,-2.0,-1.0
1303.0,2.3050000000000783,1.0,-1.0,-1.0,2.0,0.0,-3.0,-13.0,-5.5,-2.0,-2.0,-1.0
1304.0,2.0,0.48000000000012333,-1.0,-1.0,2.0,0.0,-3.0,-13.0,-5.5,-2.0,-1.7400000000000617,-1.0
1305.0,2.0,0.0,-1.0,-1.0,2.0,0.0,-3.0,-13.0,-5.5,-2.0,-1.175000000000045,-1.0
1306.0,2.0,0.0,-1.0,-1.0,2.0,0.0,-3.0,-13.0,-5.5,-2.0,-1.0,-1.0
1307.0,2.0,0.0,-1.0,-1.0,2.0,0.0,-3.0,-13.0,-5.0450000000000115,-2.0,-1.0,-1.0
1308.0,2.0,0.0,-1.0,-1.0,1.9600000000002467,0.0,-3.0,-13.0,-4.5,-2.0,-1.0,-1.0
1309.0,2.0,0.0,-1.0,-1.0,1.0,0.0,-3.0,-13.0,-4.5,-2.0,-1.0,-1.0
1310.0,2.0,0.0,-1.0,-1.0,1.0,0.0,-3.0,-13.0,-4.5,-1.85000000000009,-1.0,-1.0
1311.0,2.0,0.0,-1.0,-1.0,1.0,0.0,-3.0,-13.0,-4.5,-1.2850000000000732,-1.0,-1.0
1312.0,2.0,0.0,-1.0,-1.0,1.0,0.0,-3.0,-13.0,-4.5,-1.0,-1.0,-1.0
1313.0,2.0,0.0,-1.0,-1.0,1.0,0.0,-3.0,-13.0,-4.5,-1.0,-1.0,-1.0
1314.0,2.0,0.0,-1.0,-1.0,1.0,0.0,-3.0,-12.180000000000046,-4.5,-1.0,-1.0,-1.0
1315.0,2.0,0.949999999999743,-1.0,-1.0,1.0,0.0,-2.5250000000001283,-12.0,-4.5,-1.0,-1.0,-1.0
1316.0,2.0,1.0,-1.0,-1.0,1.0,0.0,-2.0,-12.0,-4.5,-1.0,-1.0,-1.0
1317.0,2.0,1.0,-1.0,-1.0,1.0,0.0,-2.0,-12.0,-4.5,-1.0,-1.0,-1.0
1318.0,2.0,1.0,-1.0,-1.0,1.0,0.0,-2.0,-12.0,-4.5,-1.0,-1.0,-1.0
1319.0,2.0,1.0,-1.0,-1.0,1.0,0.0,-2.0,-12.0,-4.5,-1.0,-1.0,-1.0
1320.0,2.0,1.0,-1.0,-1.0,1.0,0.0,-2.0,-12.0,-4.5,-1.0,-1.0,-1.0
1321.0,2.0,1.0,-1.0,-1.0,1.0,0.0,-2.0,-12.0,-4.5,-1.0,-1.0,-1.0
1322.0,2.0,1.0,-1.0,-1.0,1.0,0.0,-2.0,-12.0,-4.5,-1.0,-1.0,-0.14000000000003598
1323.0,2.0,0.010000000000257026,-1.0,-1.0,1.0,0.0,-2.0,-11.505000000000129,-4.5,-1.0,-1.0,0.0
1324.0,2.0,0.0,-1.0,-1.0,1.0,0.0,-2.0,-11.0,-4.5,-1.0,-1.0,0.0
1325.0,2.0,0.0,-1.0,-1.0,1.0,0.0,-2.0,-11.0,-4.5,-1.0,-1.0,0.0
1326.0,2.0,0.0,-1.0,-1.0,1.0,0.0,-2.0,-11.0,-4.5,-1.0,-1.0,0.0
1327.0,2.0,0.0,-1.0,-1.0,1.0,0.0,-2.0,-11.0,-4.5,-1.0,-1.0,-0.25499999999993705
1328.0,2.0,0.0,-1.0,-1.0,1.0,0.0,-2.0,-11.0,-3.8600000000000927,-1.0,-1.0,-0.8199999999999538
1329.0,2.0,0.0,-1.0,-1.0,1.0,0.0,-2.0,-11.0,-3.5,-1.0,-1.0,-0.6150000000000295
1330.0,2.0,0.0,-1.0,-1.0,1.0,0.0,-2.0,-11.0,-3.5,-1.0,-1.0,-0.05000000000001281
1331.0,2.0,0.029999999999750775,-1.0,-1.0,1.0,0.0,-3.0,-11.0,-3.5,-1.0,-1.0,-1.0
1332.0,2.0,1.0,-1.0,-1.0,1.0,0.0,-3.0,-11.0,-3.5,-1.0,-1.0,-1.0
1333.0,2.2899999999998175,1.0,-1.0,-1.0,1.2899999999998175,0.0,-3.0,-11.0,-3.5,-1.0,-1.0,-1.0
1334.0,3.0,1.0,-1.0,-1.0,2.0,0.0,-3.0,-11.0,-3.5,-1.0,-1.0,-1.0
1335.0,3.0,1.0,-1.0,-1.0,2.0,0.0,-3.0,-11.0,-3.5,-1.0,-1.0,-1.0
1336.0,3.0,1.0,-1.0,-1.0,2.0,0.0,-3.0,-10.320000000000082,-3.5,-1.0,-1.0,-1.0
1337.0,3.0,1.0,-1.0,-1.0,2.0,0.0,-3.0,-10.0,-3.5,-1.0,-1.0,-1.0
1338.0,3.0,1.0,-1.0,-1.0,2.0,0.0,-3.0,-10.0,-3.5,-1.0,-1.0,-1.0
1339.0,3.0,1.0,-1.0,-1.0,2.0,0.0,-3.0,-10.0,-3.5,-1.0,-1.0,-1.0
1340.0,3.0,1.0,-1.0,-1.0,2.0,0.0,-3.0,-10.0,-3.5,-1.0,-1.0,-1.0
1341.0,3.0,1.0,-1.0,-1.0,2.0,0.0,-3.0,-10.0,-3.1700000000001722,-1.0,-1.0,-1.0
1342.0,2.5400000000001386,1.0,-1.0,-1.0,2.0,0.0,-3.0,-10.0,-2.5,-1.0,-1.0,-0.5400000000001388
1343.0,2.0,1.0,-1.0,-1.0,2.0,0.0,-2.7050000000000525,-9.705000000000053,-2.5,-1.0,-1.0,0.0
1344.0,2.0,1.0,-1.0,-1.0,2.0,0.0,-2.140000000000036,-9.140000000000036,-2.5,-1.0,-1.0,0.0
1345.0,2.0,1.0,-1.0,-1.0,2.0,0.0,-2.0,-9.0,-2.5,-1.0,-1.0,0.0
1346.0,2.0,1.0,-1.0,-1.0,2.0,0.0,-2.0,-9.0,-2.5,-1.0,-1.0,0.0
1347.0,2.0,1.0,-1.0,-1.0,1.0,0.0,-2.0,-9.0,-2.5,-0.4450000000001143,-1.0,0.0
1348.0,2.0,1.0,-1.0,-1.0,1.0,0.0,-2.0,-9.0,-2.5,0.0,-1.0,0.0
1349.0,2.0,1.0,-1.0,-1.0,1.0,0.0,-2.0,-9.0,-2.5,0.0,-1.0,0.0
1350.0,2.0,1.0,-1.0,-1.0,1.0,0.0,-2.0,-9.0,-2.5,0.0,-1.0,0.0
1351.0,2.0,1.0,-1.0,-1.0,1.0,0.0,-2.0,-9.0,-2.5,0.0,-1.0,0.0
1352.0,2.0,1.0,-1.0,-1.0,1.0,0.0,-2.0,-9.0,-2.5,0.0,-1.0,0.0
1353.0,2.0,1.0,-1.0,-1.0,1.0,0.0,-2.0,-8.110000000000028,-2.5,0.0,-1.0,0.0
1354.0,2.0,1.0,-1.0,-1.0,1.0,0.0,-2.0,-8.0,-2.5,0.0,-1.0,0.0
1355.0,2.0,1.0,-1.0,-1.0,1.0,0.0,-2.0,-8.0,-2.5,0.0,-1.0,0.0
1356.0,2.0,1.0,-1.0,-1.0,1.0,0.0,-2.0,-8.0,-2.220000000000185,0.0,-1.0,0.0
1357.0,2.0,1.0,-1.0,-1.0,1.0,0.0,-2.0,-8.0,-1.5,0.0,-1.0,0.0
1358.0,2.0,1.0,-1.0,-1.0,1.0,0.0,-2.0,-8.0,-1.5,0.0,-1.0,0.0
1359.0,2.0,1.0,-1.0,-1.0,1.0,0.0,-2.0,-8.0,-1.5,0.0,-1.0,0.0
1360.0,2.0,1.0,-1.0,-1.0,1.0,0.0,-2.0,-8.0,-1.5,0.0,-1.0,0.0
1361.0,2.0,1.0,-1.0,-1.0,1.0,0.0,-2.0,-8.0,-1.5,0.0,-1.0,0.0
1362.0,1.9700000000001208,1.0,-1.0,-1.0,1.0,0.0,-2.0,-8.0,-1.5,0.0,-1.0,0.0
1363.0,1.4050000000001042,1.0,-1.0,-1.0,1.0,0.0,-2.0,-7.810000000000208,-1.5,0.0,-1.0,0.0
1364.0,1.0,1.0,-0.6800000000001747,-1.0,1.0,0.0,-2.0,-7.0,-1.5,0.0,-0.8400000000000873,0.0
1365.0,1.0,1.0,0.0,-1.0,1.0,0.0,-2.0,-7.0,-1.5,0.0,-0.27500000000007063,0.0
1366.0,1.0,1.0,0.0,-1.0,1.0,0.0,-2.0,-7.0,-1.5,0.0,0.0,0.0
1367.0,1.0,1.0,0.0,-1.0,1.0,0.0,-2.0,-7.0,-0.7900000000000745,0.0,0.0,0.0
1368.0,1.0,1.0,0.0,-1.0,1.0,0.0,-2.0,-7.0,-0.5,0.0,0.0,0.0
1369.0,1.0,1.0,0.0,-1.0,1.0,0.0,-2.0,-7.0,-0.5,0.0,0.0,0.0
1370.0,1.0,1.0,0.0,-1.0,1.0,0.0,-2.0,-7.0,-0.5,0.0,0.0,0.0
1371.0,1.0,1.0,0.0,-1.0,1.0,0.0,-2.0,-7.0,-0.5,0.0,0.0,0.0
1372.0,1.0,1.0,0.0,-1.0,1.0,0.0,-2.0,-7.0,-0.5,0.0,0.0,0.0
1373.0,1.0,1.0,0.0,-1.0,0.7550000000000655,0.0,-2.0,-6.755000000000066,-0.5,0.0,0.0,0.0
1374.0,1.0,1.0,0.0,-1.0,0.1900000000000488,0.0,-2.0,-6.190000000000049,-0.5,0.0,0.0,0.0
1375.0,1.0,1.0,0.0,-1.0,0.0,0.0,-2.0,-6.0,-0.5,0.0,0.0,0.0
1376.0,1.0,1.0,0.0,-1.0,0.0,0.0,-2.0,-6.0,-0.5,0.0,0.0,0.0
1377.0,1.0,1.0,0.0,-1.0,0.0,0.0,-2.0,-6.0,-0.5,0.0,0.0,0.0
1378.0,1.0,1.0,0.0,-1.0,0.0,0.0,-2.0,-6.0,-0.5,0.0,0.0,0.0
1379.0,0.8650000000000938,1.0,0.0,-1.0,0.0,0.0,-2.0,-6.0,-0.5,0.0,0.0,0.0
1380.0,0.3000000000000771,1.0,0.0,-1.0,0.0,0.0,-2.0,-6.0,-0.5,0.0,0.0,0.0
1381.0,0.0,1.0,0.0,-1.0,0.0,0.0,-2.0,-6.0,-0.5,0.0,0.0,0.0
1382.0,0.0,1.0,0.0,-1.0,0.0,0.0,-2.0,-6.0,-0.5,0.0,0.0,0.0
1383.0,0.0,1.0,0.0,-1.0,0.0,0.0,-2.0,-6.0,-0.5,0.0,0.0,0.0
1384.0,0.0,1.0,0.0,-1.0,0.0,0.0,-2.0,-6.0,-0.5,0.0,0.0,0.0
1385.0,0.0,1.0,0.0,-1.0,0.0,0.0,-2.0,-6.0,-0.5,0.0,0.0,0.0
1386.0,0.0,1.0,0.0,-1.0,0.0,0.0,-2.0,-5.820000000000211,-0.5,0.0,0.0,0.0
1387.0,0.0,1.0,0.0,-1.0,0.0,0.0,-2.0,-5.0,-0.5,0.0,0.0,0.0
1388.0,0.0,1.0,0.0,-1.0,0.0,0.0,-2.0,-5.0,-0.5,0.0,0.0,0.0
1389.0,0.0,1.0,0.0,-0.7150000000000553,0.0,0.5699999999998895,-2.0,-5.0,-0.5,0.0,0.0,0.0
1390.0,0.0,1.0,0.0,-0.15000000000003855,0.0,1.0,-2.0,-5.0,-0.5,0.6999999999999229,0.0,0.0
1391.0,0.0,1.0,0.0,0.0,0.0,1.0,-2.0,-5.0,0.32999999999995633,1.0,0.0,0.0
1392.0,0.0,1.0,0.959999999999743,0.0,0.0,1.0,-2.0,-5.0,0.5,1.0,0.0,0.0
1393.0,-0.0899999999997662,1.0,1.0,0.0,0.0,1.0,-1.9100000000002337,-5.0,0.5,1.0,0.0,0.0
1394.0,-1.0,1.0,1.0,0.0,0.0,1.0,-1.0,-5.0,0.5,1.0,0.0,0.0
1395.0,-1.0,1.0,1.0,0.0,0.0,1.0,-1.1749999999999166,-5.0,0.5,1.0,0.0,0.0
1396.0,-0.5200000000001336,1.0,1.0,0.0,0.0,1.0,-1.7399999999999332,-5.0,0.5,1.0,0.0,0.0
1397.0,0.0,1.0,1.0,0.0,0.0,1.0,-2.0,-4.3900000000001,0.5,1.0,0.0,0.0
1398.0,0.0,1.0,1.0,0.0,0.0,1.0,-2.0,-4.0,0.5,1.0,0.0,0.0
1399.0,0.0,1.8699999999999666,1.0,0.0,0.0,1.0,-2.0,-3.565000000000017,4.621052631578795,1.0,0.0,0.4349999999999833
1400.0,0.0,6.117647058822478,2.1999999999996946,-0.6666666666665001,-0.6666666666665001,2.1999999999996946,-1.3333333333335,-1.6250000000004818,18.617647058820097,2.1999999999996946,0.999999999999743,3.9285714285705495
1401.0,-0.12999999999977646,15.269374999998785,5.3249999999994415,-2.4199999999998467,-2.6949999999996646,5.303333333332811,0.6949999999996647,5.854285714284245,32.87352631578774,5.303333333332811,3.4773333333328584,11.959999999998807
1402.0,-1.25999999999981,20.086666666666602,7.889999999999715,-3.0,-4.0,7.506666666666536,2.0,11.769523809523662,37.87218181818308,7.506666666666536,5.506666666666536,16.2706666666669
1403.0,-2.0,18.83833333333393,8.610000000000158,-3.0,-4.0,8.0,1.8050000000000783,11.033333333333854,28.877272727274367,7.805000000000079,5.805000000000079,14.228333333333774
1404.0,-2.0,13.64000000000068,7.7400000000000615,-2.7400000000000615,-4.0,7.480000000000123,0.9800000000001233,6.400000000000617,15.480000000001665,6.980000000000123,4.980000000000123,10.160000000000554
1405.0,-2.0,7.750000000000449,6.85000000000009,-2.175000000000045,-3.675000000000045,6.35000000000009,0.17500000000004495,1.4000000000003596,2.8250000000008546,5.85000000000009,3.85000000000009,5.400000000000359
1406.0,-1.2200000000000566,3.270000000000198,6.110000000000028,-2.0,-3.1100000000000283,5.220000000000057,0.0,-1.9499999999998587,-4.399999999999718,5.110000000000028,3.1100000000000283,2.050000000000141
1407.0,-1.0,0.831666666667142,5.090000000000257,-1.090000000000257,-3.0,4.545000000000129,-0.909999999999743,-4.319999999999486,-8.22999999999923,4.090000000000257,2.5450000000001287,0.13500000000038548
1408.0,-1.0,-0.7199999999996757,3.9800000000001234,-0.9800000000001233,-2.0,3.960000000000247,-1.5199999999998766,-6.55999999999963,-10.85999999999983,3.4800000000001234,1.4800000000001234,-1.3599999999998311
1409.0,-1.0,-2.1699999999997868,3.4150000000001066,-0.4150000000001066,-2.0,3.0,-2.0,-8.0,-11.330000000000213,2.8300000000002132,1.0,-2.1699999999997868
1410.0,-1.0,-3.0,3.0,0.0,-2.0,2.70000000000018,-2.0,-8.29999999999982,-10.300000000000118,2.0,0.7000000000001798,-3.0
1411.0,-1.0,-3.2149999999999266,2.5700000000001464,0.0,-1.7850000000000732,2.0,-2.0,-9.0,-9.11666666666691,1.7850000000000732,0.0,-3.0
1412.0,-1.2799999999999434,-3.7799999999999434,2.0,0.0,-1.2200000000000566,1.7200000000000566,-2.0,-9.0,-7.513333333333467,1.2200000000000566,0.0,-3.0
1413.0,-1.8449999999999602,-3.3100000000000795,2.0,0.0,-1.0,1.1550000000000398,-2.0,-8.31000000000008,-6.19500000000009,1.0,0.0,-3.0
1414.0,-2.0,-3.0,2.0,0.0,-1.0,1.0,-2.0,-8.0,-4.740000000000061,1.0,0.0,-3.0
1415.0,-2.0,-3.0,2.0,0.0,-1.0,1.0,-2.0,-8.0,-4.025000000000128,1.0,0.0,-2.050000000000257
1416.0,-1.0,-2.920000000000236,1.0,0.0,-1.0,0.9600000000001182,-2.0,-7.960000000000118,-3.420000000000236,0.4600000000001182,0.0,-2.0
1417.0,-1.0,-2.0,1.0,0.0,-1.0,0.3950000000001015,-2.0,-7.395000000000102,-2.5,0.0,0.0,-2.0
1418.0,-1.0,-2.0,1.0,0.0,-1.0,0.0,-2.0,-7.0,-2.16000000000017,0.0,0.0,-1.6600000000001696
1419.0,-1.0,-1.5300000000001361,1.0,0.0,-1.0,0.0,-2.0,-7.0,-1.5,0.0,0.0,-1.0
1420.0,-1.0,-1.0,1.0,0.0,-1.0,0.0,-2.0,-6.4000000000001025,-0.9000000000001027,0.0,0.0,-1.0
1421.0,-1.0,-1.0,1.0,0.0,-1.0,0.0,-2.0,-6.0,-0.5,0.0,0.0,-1.0
1422.0,-1.0,-1.0,1.0,0.0,-1.0,0.0,-2.0,-6.0,-0.5,0.0,0.0,-0.14000000000003598
1423.0,-1.0,-0.010000000000257026,1.0,0.0,-1.0,0.0,-2.0,-6.0,-0.5,0.0,0.0,0.0
1424.0,-1.0,0.0,1.0,0.0,-1.0,0.0,-2.0,-6.0,-0.5,0.0,0.0,0.0
1425.0,-1.0,0.0,1.0,0.0,-1.0,0.0,-2.0,-5.750000000000193,-0.5,0.0,0.0,0.0
1426.0,-1.0,0.0,1.0,0.0,-1.0,0.0,-2.0,-5.0,-0.5,0.0,0.0,0.0
1427.0,-1.0,0.0,1.0,0.0,-1.0,0.0,-2.0,-5.0,-0.5,0.0,0.0,0.0
1428.0,-1.0,0.0,1.0,0.0,-1.0,0.0,-2.0,-5.0,-0.5,0.0,0.0,0.0
1429.0,-1.0,0.0,1.0,0.0,-1.0,0.0,-2.0,-5.0,-0.5,0.0,0.0,0.0
1430.0,-1.899999999999743,0.0,1.0,0.0,-1.0,0.0,-2.0,-5.0,-0.5,0.0,0.0,0.0
1431.0,-2.0299999999997507,0.0,1.0299999999997507,0.0,-1.0299999999997507,0.5149999999998753,-2.0,-5.0,-0.4850000000001246,0.5149999999998753,0.0,0.029999999999750775
1432.0,-3.0,0.0,2.0,0.15999999999978418,-2.0,1.0,-2.0,-5.0,-0.07999999999989209,1.0,0.0,1.0
1433.0,-3.0,0.0,2.0,1.0,-2.0,1.0,-2.0,-5.0,-0.5,1.0,0.0,1.0
1434.0,-3.2099999999999254,0.0,2.0,1.0,-2.0,1.0,-2.0,-5.0,-0.5,1.0,0.0,1.0
1435.0,-3.774999999999942,0.0,2.0,1.0,-2.0,1.0,-2.0,-5.0,-0.5,1.0,0.0,1.0
1436.0,-4.0,0.0,2.0,1.0,-2.0,1.0,-2.0,-5.0,-0.5,1.0,0.0,1.0
1437.0,-4.0,0.0,2.809999999999951,1.0,-2.0,1.0,-2.0,-5.0,-0.5,1.0,0.0,1.0
1438.0,-4.0,0.0,3.0,1.0,-2.939999999999743,1.0,-2.0,-5.0,-0.5,1.0,0.0,1.0
1439.0,-4.0,0.0,3.0,1.0,-3.0,1.0,-2.0,-5.03499999999988,-0.5,1.0,0.0,1.0
1440.0,-4.0,0.0,3.0,1.0,-3.0,1.0,-2.0,-5.5999999999998975,-0.5999999999998973,1.0,0.0,1.0
1441.0,-4.0,0.0,3.0,1.0,-3.0,1.0,-2.0,-6.0,-1.1649999999999139,1.0,0.0,1.0
1442.0,-4.0,0.0,3.0,1.0,-3.0,1.0,-2.0,-6.0,-1.5,1.0,0.0,1.0
1443.0,-4.0,0.0,3.0,1.0,-3.0,1.2949999999999473,-2.0,-6.0,-1.5,1.0,0.0,1.0
1444.0,-4.0,0.0,3.0,1.0,-3.0,1.859999999999964,-2.0,-6.0,-1.5,1.0,0.0,1.0
1445.0,-4.0,0.0,3.0,1.0,-3.0,2.0,-1.1500000000000385,-6.0,-1.5,1.0,0.0,1.0
1446.0,-4.0,0.0,3.0,1.0,-3.0,2.0,-1.0,-6.0,-1.5,1.0,0.0,1.0
1447.0,-4.0,0.0,3.0,1.0,-3.0,2.0,-1.0,-6.0,-1.6099999999997714,0.9450000000001143,0.0,1.0
1448.0,-4.0,0.0,3.0,1.0,-3.0,2.0,-1.0,-6.0,-2.5,0.38000000000009765,0.0,1.0
1449.0,-4.0,0.0,3.0,1.0,-3.0,2.0,-1.0,-6.0,-2.5,0.0,0.0,1.0
1450.0,-4.0,0.0,3.0,1.0,-3.0,2.0,-1.0,-6.0,-2.7499999999999356,0.0,0.0,1.0
1451.0,-4.0,0.0,3.629999999999905,1.0,-3.0,2.0,-0.6850000000000476,-6.0,-3.3149999999999524,0.0,0.0,0.37000000000009503
1452.0,-4.0,0.0,4.0,1.0,-3.0,2.0,-0.1200000000000308,-6.0,-3.8799999999999693,0.0,0.0,0.0
1453.0,-4.0,0.0,4.0,1.0,-3.0,2.0,0.0,-6.0,-4.4449999999998715,0.0,0.0,0.0
1454.0,-4.0,0.0,4.0,1.0,-3.0,2.0,0.0,-6.509999999999874,-5.009999999999874,0.0,0.0,0.0
1455.0,-4.0,0.0,4.0,1.0,-3.0,2.0,0.0,-7.0,-5.649999999999782,0.0,0.0,0.0
1456.0,-4.0,0.0,4.0,1.0,-3.279999999999815,2.0,0.0,-7.0,-6.5,0.0,0.0,0.0
1457.0,-4.204999999999925,0.0,4.0,1.2049999999999241,-4.0,2.0,0.0,-7.0,-6.5,-0.40999999999984843,0.0,-0.40999999999984843
1458.0,-4.769999999999941,0.0,4.0,1.769999999999941,-4.0,2.0,0.2699999999999409,-7.539999999999882,-7.039999999999882,-1.0,0.0,-1.0
1459.0,-5.334999999999957,0.0,4.0,2.0,-4.0,2.0,0.8349999999999576,-8.0,-7.5,-1.3349999999999576,-0.6699999999999152,-1.3349999999999576
1460.0,-5.899999999999975,-0.3999999999999743,4.0,2.0,-4.0,2.0,1.3999999999999744,-8.0,-8.29999999999995,-1.8999999999999744,-1.0,-1.8999999999999744
1461.0,-6.929999999999743,-0.9649999999998715,4.0,2.0,-4.0,2.0,1.9649999999998715,-8.0,-8.5,-2.0,-1.0,-2.0
1462.0,-7.059999999999759,-1.0,4.059999999999759,2.0599999999997585,-5.0,2.0,2.0599999999997585,-9.0,-9.5,-2.5299999999998795,-1.0,-2.5299999999998795
1463.0,-8.094999999999896,-1.0,5.0,3.0,-5.0,2.0,3.094999999999896,-9.189999999999792,-9.689999999999792,-3.0,-1.189999999999792,-3.094999999999896
1464.0,-8.659999999999913,-1.3199999999998253,5.0,3.0,-5.0,2.0,3.6599999999999127,-10.0,-10.5,-3.3199999999998253,-2.0,-3.6599999999999127
1465.0,-9.449999999999859,-2.0,5.0,3.0,-5.449999999999859,2.0,4.0,-10.449999999999859,-10.949999999999859,-4.0,-2.0,-4.0
1466.0,-10.579999999999892,-2.0,5.289999999999946,3.579999999999892,-6.0,2.0,4.579999999999892,-11.0,-11.5,-4.289999999999946,-2.0,-4.579999999999892
1467.0,-11.354999999999963,-2.0,5.854999999999963,4.0,-6.354999999999963,2.0,5.0,-11.709999999999926,-11.854999999999963,-4.854999999999963,-2.7099999999999254,-5.0
1468.0,-11.919999999999979,-2.839999999999959,6.0,4.0,-6.9199999999999795,2.0,5.839999999999959,-12.0,-12.419999999999979,-5.0,-3.0,-5.0
1469.0,-12.969999999999743,-3.0,6.0,4.4849999999998715,-7.0,2.0,6.0,-12.484999999999872,-12.5,-5.4849999999998715,-3.0,-5.969999999999743
1470.0,-13.599999999999769,-3.0499999999998844,7.0,5.0,-7.549999999999884,2.0,6.549999999999884,-13.0,-12.5,-6.0,-3.0999999999997687,-6.049999999999884
1471.0,-14.729999999999801,-3.614999999999901,7.114999999999901,5.229999999999802,-8.1149999999999,2.0,7.114999999999901,-13.229999999999801,-12.5,-6.229999999999802,-4.0,-6.614999999999901
1472.0,-15.679999999999918,-4.0,7.679999999999918,6.0,-8.679999999999918,2.0,7.679999999999918,-14.0,-12.5,-7.0,-4.0,-7.0
1473.0,-16.48999999999987,-4.0,8.0,6.0,-9.0,2.2449999999999344,8.0,-14.0,-12.5,-7.0,-4.0,-7.0
1474.0,-17.309999999999953,-4.309999999999951,8.30999999999995,6.619999999999902,-9.619999999999902,2.809999999999951,8.619999999999902,-14.0,-12.5,-7.309999999999951,-4.309999999999951,-7.619999999999902
1475.0,-17.874999999999968,-4.874999999999968,8.874999999999968,7.0,-10.0,3.0,9.0,-14.0,-11.750000000000064,-7.874999999999968,-4.874999999999968,-8.0
1476.0,-18.0,-5.0,9.0,7.0,-10.879999999999743,3.0,9.879999999999743,-14.0,-11.5,-8.0,-5.0,-8.0
1477.0,-19.0,-5.0,9.009999999999746,8.0,-11.0,3.0,10.004999999999873,-13.495000000000127,-10.155000000000301,-8.0,-5.0,-8.0
1478.0,-19.13999999999978,-5.0,10.0,8.0,-11.139999999999779,3.0,10.56999999999989,-12.93000000000011,-8.836666666666924,-8.0,-5.0,-8.0
1479.0,-20.0,-5.0,10.0,8.269999999999813,-12.0,3.0,11.0,-12.230000000000187,-7.338333333333674,-8.0,-5.0,-8.0
1480.0,-20.0,-5.399999999999846,10.0,9.0,-12.0,3.0,11.399999999999846,-11.300000000000077,-5.400000000000231,-8.0,-5.0,-8.0
1481.0,-20.0,-6.0,10.529999999999879,9.0,-12.529999999999879,3.0,12.0,-10.470000000000121,-3.793333333333497,-8.0,-5.0,-8.0
1482.0,-20.0,-6.0,11.0,9.0,-13.0,3.0,12.0,-9.340000000000087,-2.2866666666667816,-7.6700000000000434,-5.0,-8.0
1483.0,-20.0,-5.605000000000027,11.0,9.789999999999946,-13.0,3.0,12.0,-8.210000000000054,-0.7800000000000709,-7.105000000000027,-5.0,-8.0
1484.0,-20.0,-5.040000000000129,11.0,10.0,-13.0,3.0,12.0,-7.080000000000257,0.7266666666663197,-7.0,-5.0,-7.080000000000257
