time_ms,I,II,III,aVR,aVL,aVF,V1,V2,V3,V4,V5,V6
0.0,-3.6666666666666714,-0.5,2.5,1.0,-4.0,-0.5,1.0,-2.0,-3.0,-4.0,-1.0,-1.0
1.0,-3.6666666666666714,0.0,3.0,1.0,-4.0,0.0,1.0,-2.0,-3.0,-4.0,-1.0,-1.0
2.0,-3.6666666666666714,0.0,3.0,1.0,-4.0,0.0,1.0,-2.0,-3.0,-4.0,-1.2599999999999998,-1.0
3.0,-3.6666666666666714,0.0,2.6100000000000003,1.0,-4.0,0.0,1.0,-2.0,-3.0,-4.0,-2.0,-1.0
4.0,-3.6666666666666714,0.0,2.0,1.0,-4.0,0.0,1.0,-2.0,-3.0,-4.0,-2.0,-1.0
5.0,-3.6666666666666714,-0.3249999999999998,2.0,1.0,-4.0,0.0,1.0,-2.0,-3.0,-4.0,-2.0,-0.3500000000000004
6.0,-3.6666666666666714,-0.8899999999999997,2.0,1.0,-4.0,0.0,1.0,-2.0,-3.0,-4.0,-2.0,0.0
7.0,-3.6666666666666714,-1.0,2.0,1.0,-4.0,0.0,1.0,-2.0,-3.0,-4.0,-2.0,0.0
8.0,-3.6666666666666714,-1.0,2.0,1.0,-3.9800000000000004,0.0,1.0,-2.0,-3.0,-4.0,-2.0,0.0
9.0,-3.6666666666666714,-1.0,2.0,1.0,-3.4150000000000005,0.0,1.0,-2.0,-3.0,-4.0,-2.0,0.0
10.0,-3.5166666666666715,-1.0,2.0,1.0,-3.0,0.0,1.0,-2.0,-3.0,-4.0,-2.0,0.0
11.0,-2.951666666666672,-1.0,2.0,1.0,-3.0,0.0,1.0,-2.0,-3.0,-4.0,-2.0,0.0
12.0,-2.6666666666666714,-1.0,2.0,1.0,-3.0,-0.2799999999999993,1.0,-2.0,-3.0,-4.0,-2.0,0.0
13.0,-2.6666666666666714,-1.0,2.0,1.0,-3.0,-0.844999999999999,1.0,-2.0,-3.0,-4.0,-2.0,0.0
14.0,-2.6666666666666714,-1.0,2.0,1.0,-3.0,-1.0,1.0,-2.0,-3.0,-4.0,-2.0,0.0
15.0,-2.6666666666666714,-1.0,2.0,1.0,-3.0,-1.0,1.0,-2.0,-3.0,-4.0,-2.0,0.0
16.0,-2.6666666666666714,-1.0,2.0,1.0,-3.0,-1.0,1.0,-1.9200000000000017,-3.0,-4.0,-2.0,0.0
17.0,-2.6666666666666714,-1.0,2.0,1.0,-3.0,-1.0,1.0,-1.0,-3.0,-4.0,-2.0,0.0
18.0,-2.6666666666666714,-1.0,1.8300000000000012,1.0,-3.0,-1.0,1.0,-1.0,-3.0,-4.0,-2.0,0.0
19.0,-2.6666666666666714,-1.0,1.2650000000000003,1.0,-3.0,-1.0,1.0,-1.0,-3.0,-4.0,-2.0,0.0
20.0,-2.6666666666666714,-1.0,1.0,1.0,-3.0,-1.0,1.0,-1.0,-3.0,-4.0,-2.0,0.0
21.0,-2.6666666666666714,-1.0,1.0,1.0,-3.0,-1.0,1.0,-1.0,-3.0,-4.0,-2.0,0.0
22.0,-2.6666666666666714,-1.0,1.0,1.0,-3.0,-1.0,1.0,-1.0,-3.0,-4.0,-2.0,0.0
23.0,-2.6666666666666714,-1.0,1.0,1.0,-3.0,-1.0,1.0,-1.0,-3.0,-4.0,-2.0,0.0
24.0,-2.6666666666666714,-1.1199999999999988,1.0,1.0,-3.0,-1.5599999999999994,1.0,-1.0,-3.0,-4.0,-2.0,0.0
25.0,-2.6666666666666714,-2.0,1.0,1.0,-3.0,-2.0,1.0,-1.0,-3.0,-4.0,-2.0,0.0
26.0,-2.6666666666666714,-2.0,1.0,1.0,-3.0,-2.0,1.0,-1.0,-3.0,-4.0,-2.0,0.0
27.0,-2.6666666666666714,-2.0,1.0,1.0,-3.0,-2.0,1.0,-1.0,-3.0,-4.0,-2.0,0.0
28.0,-2.6666666666666714,-2.0,1.0,1.0,-3.0,-2.0,1.0,-0.3600000000000021,-3.0,-4.0,-2.0,0.0
29.0,-2.6666666666666714,-2.0,1.0,1.0,-3.0,-2.0,1.0,0.0,-3.0,-4.0,-2.0,0.0
30.0,-2.6666666666666714,-2.0,0.5500000000000014,1.0,-3.0,-2.0,1.0,0.0,-3.0,-4.0,-2.0,0.0
31.0,-2.6666666666666714,-2.0,0.0,1.0,-3.0,-2.0,1.0,0.0,-3.0,-4.0,-2.0,0.0
32.0,-2.826666666666667,-2.0,0.0,1.0,-3.0,-2.0,1.0,0.0,-3.0,-4.0,-2.0,0.0
33.0,-3.6666666666666714,-2.0,0.0,1.1449999999999976,-3.0,-2.0,1.0,0.0,-3.0,-4.0,-2.0,0.0
34.0,-3.6666666666666714,-2.0,0.0,1.709999999999999,-3.0,-2.0,1.0,0.0,-3.0,-4.0,-2.0,0.0
35.0,-3.6666666666666714,-2.0,0.0,2.0,-3.0,-2.0,1.0,0.0,-3.0,-4.0,-2.0,0.0
36.0,-3.6666666666666714,-2.0,0.0,2.0,-3.0,-2.0,1.0,0.0,-3.0,-4.0,-2.0,0.0
37.0,-3.6666666666666714,-2.0,0.0,2.0,-3.0,-2.0,1.0,0.0,-3.0,-4.0,-2.0,0.0
38.0,-3.6666666666666714,-2.0,0.0,2.0,-3.0,-2.0,1.0,0.0,-3.0,-4.0,-2.0,0.0
39.0,-3.6666666666666714,-2.0349999999999997,0.0,2.0,-3.0,-2.0,1.0,0.0,-3.0,-4.0,-2.0,0.0
40.0,-3.6666666666666714,-2.5999999999999983,0.0,2.0,-3.0,-2.0,1.0,0.0,-3.0,-4.0,-2.0,0.0
41.0,-3.6666666666666714,-3.0,0.0,2.0,-3.0,-2.0,1.0,0.0,-3.0,-4.0,-2.0,0.0
42.0,-3.6666666666666714,-3.0,0.0,2.0,-3.0,-2.4599999999999946,1.0,0.0,-3.0,-4.0,-2.0,0.0
43.0,-3.6666666666666714,-3.0,0.0,2.0,-3.0,-3.0,1.0,0.0,-3.0,-4.0,-2.0,0.0
44.0,-3.6666666666666714,-2.6400000000000032,0.0,2.0,-3.0,-3.0,1.0,0.0,-3.0,-4.0,-2.0,0.0
45.0,-2.8166666666666744,-2.0750000000000015,0.0,2.0,-3.0,-3.0,1.0,0.0,-3.0,-4.0,-2.0,0.0
46.0,-2.6666666666666714,-2.0,0.0,2.0,-3.0,-3.0,1.0,0.0,-3.0,-4.0,-2.0,0.0
47.0,-2.6666666666666714,-2.0,0.0,2.0,-3.0,-3.0,1.0,0.0,-3.0,-4.0,-2.0,0.0
48.0,-2.6666666666666714,-2.0,0.0,2.0,-3.0,-3.0,1.0,0.0,-3.0,-4.0,-2.0,0.0
49.0,-2.6666666666666714,-2.0,0.0,2.0,-2.8150000000000026,-3.0,1.0,0.0,-3.0,-4.0,-2.0,0.0
50.0,-2.6666666666666714,-2.0,0.0,2.0,-2.250000000000004,-3.0,1.0,0.0,-3.0,-4.0,-2.0,0.0
51.0,-2.6666666666666714,-2.0,0.0,2.0,-2.0,-3.0,1.0,0.0,-2.685000000000003,-4.0,-2.0,0.0
52.0,-2.6666666666666714,-2.0,0.0,2.0,-2.0,-3.0,1.0,0.0,-2.1200000000000028,-4.0,-2.0,0.0
53.0,-2.6666666666666714,-2.0,0.0,2.0,-2.0,-3.0,1.0,0.0,-2.0,-4.0,-2.0,0.0
54.0,-2.6666666666666714,-2.0,0.0,2.0,-2.0,-3.0,1.0,0.0,-2.0,-4.0,-2.0,0.0
55.0,-2.6666666666666714,-2.0,0.0,2.0,-2.0,-3.0,1.0,0.0,-2.0,-4.0,-2.0,0.0
56.0,-2.6666666666666714,-2.0,0.0,2.0,-2.0,-3.0,1.0,0.0,-2.0,-4.0,-2.0,0.0
57.0,-2.6666666666666714,-2.0,0.0,2.0,-2.0,-3.0,1.0,0.0,-2.204999999999998,-4.0,-2.0,0.0
58.0,-2.6666666666666714,-2.0,-0.5399999999999929,2.0,-2.0,-3.0,1.0,0.0,-2.7699999999999965,-4.0,-2.0,0.0
59.0,-2.6666666666666714,-2.0,-1.0,2.0,-2.0,-3.0,1.0,0.0,-3.0,-4.0,-2.0,0.0
60.0,-2.6666666666666714,-2.0,-1.0,2.0,-2.0,-3.0,1.0,0.0,-3.0,-4.0,-2.0,0.0
61.0,-2.6666666666666714,-2.0,-1.0,2.0,-2.0,-3.0,1.0,0.0,-3.0,-4.0,-2.0,0.0
62.0,-2.6666666666666714,-2.0,-1.0,2.0,-2.0,-3.0,1.0,0.0,-3.0,-4.0,-2.0,0.0
63.0,-2.6666666666666714,-2.0,-1.0,2.0,-2.0,-3.0,1.0,0.0,-3.0,-4.0,-2.0,0.0
64.0,-2.6666666666666714,-2.0,-1.0,2.0,-2.0,-3.0,1.0,0.0,-3.0,-4.0,-2.0,0.0
65.0,-2.6666666666666714,-2.0,-1.0,2.0,-2.0,-3.0,1.0,0.0,-2.5500000000000114,-4.0,-2.0,0.0
66.0,-2.6666666666666714,-2.0,-1.0,2.0,-2.0,-3.0,1.0,0.0,-2.0,-4.0,-2.0,0.0
67.0,-2.6666666666666714,-2.0,-1.0,2.0,-2.0,-3.0,1.0,0.0,-2.0,-4.0,-2.0,0.0
68.0,-2.6666666666666714,-2.0,-1.0,2.0,-2.0,-3.0,1.0,0.0,-2.0,-4.0,-2.0,0.0
69.0,-2.6666666666666714,-2.0,-1.0,2.0,-2.0,-3.0,1.0,0.0,-2.0,-4.0,-2.0,0.0
70.0,-2.6666666666666714,-2.0,-1.0,2.0,-2.0,-3.0,1.0,0.0,-2.0,-4.0,-2.0,0.0
71.0,-2.6666666666666714,-2.0,-1.0,2.0,-2.0,-3.0,1.0,0.0,-2.0,-4.0,-2.0,0.0
72.0,-2.6666666666666714,-2.0,-1.0,2.0,-2.0,-3.0,1.0,0.0,-2.0,-4.0,-2.0,0.0
73.0,-2.6666666666666714,-2.0,-1.0,2.0,-2.0,-3.0,1.0,0.0,-2.0,-4.0,-2.0,0.0
74.0,-2.6666666666666714,-2.0,-1.0,2.0,-2.0,-3.0,1.0,0.0,-2.0,-4.0,-2.0,0.0
75.0,-2.6666666666666714,-2.0,-1.0,2.0,-2.0,-3.0,1.0,0.0,-2.0,-4.0,-2.0,0.0
76.0,-2.6666666666666714,-2.0,-1.0,2.0,-2.0,-3.0,1.0,0.0,-2.0,-4.0,-2.0,0.0
77.0,-2.6666666666666714,-2.0,-0.9900000000000136,2.0,-2.0,-3.0,1.0,1.0,-2.0,-4.0,-2.0,0.0
78.0,-2.6666666666666714,-2.0,0.0,2.0,-2.0,-3.0,1.0,1.0,-2.0,-4.0,-2.0,0.0
79.0,-2.6666666666666714,-2.0,0.0,2.0,-2.0,-3.0,1.0,1.0,-2.0,-3.7300000000000035,-2.0,0.0
80.0,-2.6666666666666714,-2.0,0.0,2.0,-2.0,-3.0,1.0,1.0,-2.0,-3.0,-2.0,0.0
81.0,-2.6666666666666714,-2.0,0.0,2.0,-2.0,-3.0,1.0,1.0,-2.0,-3.0,-2.0,0.0
82.0,-2.6666666666666714,-2.0,0.0,2.0,-2.0,-3.0,1.0,1.0,-2.0,-3.0,-1.3400000000000123,0.0
83.0,-2.6666666666666714,-2.0,0.0,2.0,-2.0,-3.0,1.0,1.0,-2.0,-3.0,-1.0,0.0
84.0,-2.6666666666666714,-2.0,0.0,2.0,-2.0,-3.0,1.0,1.0,-2.0,-3.0,-1.0,0.0
85.0,-2.6666666666666714,-2.0,0.0,1.9500000000000048,-2.0,-3.0,1.0,1.0,-2.0,-3.0,-1.0,0.0
86.0,-2.6666666666666714,-2.0,0.0,1.0,-2.0,-3.0,1.0,1.0,-2.0,-3.0,-1.0,0.0
87.0,-2.6666666666666714,-2.0,0.0,1.0,-2.0,-3.0,1.0,1.0,-1.6900000000000106,-3.0,-1.0,0.0
88.0,-2.6666666666666714,-2.0,0.0,1.0,-2.0,-3.0,1.0,1.0,-1.0,-3.0,-1.0,0.0
89.0,-2.6666666666666714,-2.0,0.0,1.0,-2.0,-3.0,1.0,1.0,-1.0,-3.0,-1.0,0.0
90.0,-2.6666666666666714,-2.0,0.0,1.0,-2.0,-3.0,1.0,1.0,-1.0,-3.0,-1.0,0.0
91.0,-2.6666666666666714,-2.0,0.0,1.0,-2.0,-3.0,1.0,1.0,-1.0,-3.0,-1.0,0.0
92.0,-2.6666666666666714,-2.0,0.0,1.0,-2.0,-3.0,1.0,1.0,-1.0,-3.0,-1.0,0.0
93.0,-2.6666666666666714,-2.0,0.0,1.0,-2.0,-3.0,1.0,1.0,-1.0,-3.0,-1.0,0.0
94.0,-2.6666666666666714,-2.0,0.0,1.0,-2.0,-3.0,1.0,1.0,-1.0,-3.0,-1.0,0.0
95.0,-2.6666666666666714,-2.0,0.0,1.174999999999994,-2.0,-3.0,1.0,1.0,-1.0,-3.0,-1.0,0.0
96.0,-2.6666666666666714,-2.0,0.0,1.7399999999999978,-2.0,-3.0,1.0,1.0,-1.4799999999999955,-3.0,-1.0,0.0
97.0,-2.6666666666666714,-2.0,0.0,2.0,-2.0,-3.0,1.0,1.0,-2.0,-3.0,-1.0,0.0
98.0,-2.6666666666666714,-2.0,0.0,2.0,-2.0,-3.0,1.0,1.0,-2.0,-3.0,-1.0,0.0
99.0,-2.6666666666666714,-2.0,0.0,2.0,-2.0,-3.0,1.0,1.0,-2.0,-3.0,-1.0,0.0
100.0,-2.6666666666666714,-2.0,0.0,2.0,-2.0,-3.0,1.0,1.0,-2.0,-3.0,-1.0,0.0
101.0,-2.6666666666666714,-2.0,0.0,2.0,-2.0,-3.0,1.0,1.0,-2.0,-3.0,-1.0,0.0
102.0,-2.6666666666666714,-2.0,0.0,2.0,-2.0,-3.0,1.0,1.0,-2.0,-3.0,-1.0,0.0
103.0,-2.6666666666666714,-2.0,0.0,2.0,-2.0,-3.0,1.0,1.0,-2.0,-3.0,-1.0,0.0
104.0,-2.6666666666666714,-2.0,0.0,2.0,-2.0,-3.0,1.0,1.0,-2.0,-3.0,-1.0,0.0
105.0,-2.6666666666666714,-2.0,0.0,2.0,-2.0,-3.0,1.0,1.0,-2.0,-3.0,-1.0,0.0
106.0,-2.6666666666666714,-2.0,0.0,2.0,-2.0,-3.0,1.0,1.0,-2.0,-3.0,-1.0,0.0
107.0,-2.6666666666666714,-2.0,0.0,2.0,-2.0,-3.0,1.0,1.0,-2.0,-3.0,-1.0,0.0
108.0,-2.6666666666666714,-2.0,-0.5199999999999965,2.0,-2.0,-3.0,1.0,1.0,-1.0,-3.0,-1.0,0.0
109.0,-2.6666666666666714,-2.0,-1.0,2.0,-2.0,-3.0,1.0,1.0,-1.0,-3.0,-1.0,0.0
110.0,-2.6666666666666714,-2.0,-1.0,1.8500000000000065,-2.0,-3.0,1.0,1.0,-1.0,-3.0,-1.0,0.0
111.0,-2.6666666666666714,-2.0,-1.0,1.285000000000008,-2.0,-3.0,1.0,1.0,-1.0,-3.0,-1.0,0.0
112.0,-2.6666666666666714,-2.0,-1.0,1.0,-2.0,-3.0,1.0,1.0,-1.0,-3.0,-1.0,0.0
113.0,-2.6666666666666714,-2.0,-1.0,1.0,-2.0,-3.0,1.0,1.0,-1.0,-3.0,-1.0,0.0
114.0,-2.6666666666666714,-2.0,-1.0,1.0,-2.0,-3.0,1.0,1.0,-1.0,-3.0,-1.0,0.0
115.0,-2.6666666666666714,-2.0,-1.0,1.0,-2.0,-3.0,1.0,1.0,-1.0,-3.0,-1.0,0.0
116.0,-2.6666666666666714,-2.0,-1.0,1.0,-2.0,-3.0,1.0,1.0,-0.9200000000000141,-3.0,-1.0,0.0
117.0,-2.6666666666666714,-2.0,-1.0,1.0,-2.0,-3.0,1.0,1.0,0.0,-3.0,-1.0,0.0
118.0,-2.6666666666666714,-2.0,-1.0,1.0,-2.0,-3.0,1.0,1.0,0.0,-2.6600000000000144,-1.0,0.0
119.0,-2.6666666666666714,-2.0,-1.0,1.0,-2.0,-3.0,1.0,1.0,0.0,-2.0,-1.0,0.0
120.0,-2.6666666666666714,-2.0,-1.0,1.0,-2.0,-3.0,1.0,1.0,0.0,-2.0,-1.0,0.0
121.0,-2.6666666666666714,-2.0,-0.27000000000001256,1.0,-2.0,-3.0,1.0,1.0,0.0,-2.0,-1.0,0.0
122.0,-2.6666666666666714,-2.0,0.0,1.0,-2.0,-3.0,1.0,1.0,0.0,-2.0,-1.0,0.0
123.0,-2.6666666666666714,-2.0,0.0,1.0,-2.0,-3.0,1.0,1.4949999999999908,0.0,-2.0,-1.0,0.0
124.0,-2.6666666666666714,-2.0,0.0,1.0,-2.0,-3.0,1.0,2.0,0.0,-2.0,-1.0,0.0
125.0,-2.6666666666666714,-2.0,0.0,1.0,-2.0,-3.0,1.0,2.0,0.0,-2.0,-1.0,0.0
126.0,-2.6666666666666714,-1.620000000000011,0.0,1.0,-2.0,-3.0,1.0,2.0,0.0,-2.0,-1.0,0.0
127.0,-2.6666666666666714,-1.0,0.0,1.0,-2.0,-3.0,1.0,2.0,0.5099999999999861,-2.0,-1.0,0.0
128.0,-2.6666666666666714,-1.0,0.0,1.0,-2.0,-3.0,1.0,2.0,1.0,-2.0,-1.0,0.0
129.0,-2.6666666666666714,-1.0,0.0,1.0,-2.0,-2.61500000000001,1.0,2.0,1.0,-2.0,-1.0,0.0
130.0,-2.6666666666666714,-1.0,0.0,1.0,-2.0,-2.0500000000000114,1.0,2.0,1.0,-2.0,-0.10000000000002252,0.0
131.0,-2.6666666666666714,-1.0,0.0,1.0,-2.0,-2.0,1.0,2.0,1.0,-2.0,0.0,0.0
132.0,-2.6666666666666714,-1.0,0.0,1.0,-2.0,-2.0,1.0,2.0,1.0,-2.0,0.0,0.0
133.0,-2.6666666666666714,-1.0,0.0,1.0,-2.0,-2.0,1.0,2.0,1.0,-2.0,0.0,0.0
134.0,-2.6666666666666714,-1.0,0.0,1.0,-2.0,-2.0,1.0,2.0,1.0,-1.790000000000001,0.0,0.0
135.0,-2.6666666666666714,-1.0,0.0,1.0,-2.0,-2.0,1.0,2.0,1.0,-1.2250000000000023,0.0,0.0
136.0,-2.6666666666666714,-1.0,0.0,1.0,-2.0,-2.0,1.0,2.0,1.0,-1.0,0.0,0.0
137.0,-2.6666666666666714,-1.0,0.0,1.0,-2.0,-2.0,1.0,2.0,1.0,-1.0,0.0,0.0
138.0,-2.6666666666666714,-1.0,0.0,1.0,-2.0,-2.0,1.0,2.0,1.0,-1.0,0.0,0.0
139.0,-2.6666666666666714,-1.0,0.0,1.0,-2.0,-2.0,1.0,2.0,1.0,-1.0,0.0,0.0
140.0,-2.6666666666666714,-1.0,0.0,1.0,-2.0,-2.0,1.0,2.0,1.0,-1.0,0.0,0.0
141.0,-2.6666666666666714,-1.0,0.0,1.0,-2.0,-2.0,1.0,2.0,1.0,-1.0,0.0,0.0
142.0,-2.6666666666666714,-1.0,0.0,1.0,-2.0,-2.0,1.0,2.0,1.0,-1.0,0.0,0.0
143.0,-2.6666666666666714,-1.0,0.0,1.0,-2.0,-2.0,1.0,2.0,1.0,-1.0,0.0,0.0
144.0,-2.6666666666666714,-1.0,0.0,1.0,-2.0,-2.0,1.0,2.0,1.0,-1.0,0.0,0.0
145.0,-2.6666666666666714,-1.0,0.0,1.0,-2.0,-2.0,1.0,2.0,1.0,-1.0,0.0,0.0
146.0,-2.6666666666666714,-1.0,0.0,1.0,-2.0,-2.0,1.0,2.0,1.0,-1.0,0.0,0.0
147.0,-2.6666666666666714,-1.0,0.0,1.0,-2.0,-2.0,1.0,2.0,1.0,-1.0,0.0,0.0
148.0,-2.6666666666666714,-1.0,0.0,1.0,-2.0,-2.0,1.0,2.0,1.0,-1.0,0.0,0.0
149.0,-2.6666666666666714,-1.0,0.0,1.0,-2.0,-2.0,1.0,2.0,1.0,-1.0,0.0,0.0
150.0,-2.6666666666666714,-1.0,0.0,1.0,-2.0,-2.0,1.0,1.666666666666675,1.0,-1.0,0.0,0.0
151.0,-4.556666666666614,0.43999999999996064,1.3649999999999618,1.0,-2.9449999999999714,-1.370000000000019,1.3149999999999906,-3.2866666666665294,2.749999999999943,-0.6850000000000095,0.0,0.629999999999981
152.0,-12.886666666666464,4.277460317460237,4.428571428571361,1.379999999999989,-6.159999999999924,0.671999999999954,2.259999999999978,-20.059999999999597,6.986666666666573,0.25999999999997814,0.7599999999999781,2.8999999999999453
153.0,-23.324999999999783,8.762444444444348,8.321428571428477,2.3899999999999753,-9.96666666666658,3.5139999999999336,2.9449999999999874,-41.142999999999546,10.669999999999925,0.9449999999999876,1.8899999999999753,5.7249999999999375
154.0,-23.250000000000124,9.286666666666726,10.986666666666684,2.990000000000014,-10.990000000000014,4.9900000000000135,2.990000000000014,-44.42800000000024,9.103333333333426,1.9800000000000275,2.0,5.9700000000000415
155.0,-18.491666666666788,6.625000000000064,10.133333333333363,2.4250000000000127,-10.350000000000026,4.425000000000013,2.4250000000000127,-34.38600000000028,5.625000000000064,1.0,2.0,4.2750000000000385
156.0,-13.406666666666677,3.9400000000000026,8.72,2.0,-9.22,3.7200000000000015,1.8600000000000008,-22.30691764705884,2.9400000000000026,1.0,1.8600000000000008,2.813333333333333
157.0,-8.526666666666689,1.6800000000000084,7.385000000000006,2.0,-8.02166666666667,2.5900000000000043,1.2950000000000021,-11.37617647058827,0.7483333333333428,0.7950000000000021,1.2950000000000021,1.7866666666666693
158.0,-4.546666666666693,-0.3099999999999894,5.510000000000016,2.0,-6.61333333333334,1.460000000000007,1.0,-2.7200000000000495,-0.9633333333333229,0.23000000000000353,1.0,0.46000000000000707
159.0,-1.8266666666666915,-1.66999999999999,4.220000000000008,1.33000000000001,-5.33000000000001,0.33000000000001006,1.0,4.184999999999945,-1.834999999999995,0.0,1.0,0.0
160.0,0.29999999999996807,-2.799999999999987,2.933333333333354,1.0,-4.600000000000007,0.0,1.0,9.199999999999948,-2.799999999999987,0.0,1.0,0.0
161.0,1.7516666666666432,-3.929999999999984,2.0466666666666775,1.0,-3.570000000000016,-0.4649999999999921,1.0,12.32499999999996,-3.0,0.0,1.0,-0.4649999999999921
162.0,2.863333333333319,-4.0,1.4700000000000093,1.0,-3.0,-1.0,1.0,14.373333333333317,-2.4700000000000095,-1.0,0.9400000000000186,-1.0
163.0,3.3333333333333286,-4.189999999999978,0.8100000000000216,1.0,-2.905000000000011,-1.1899999999999784,1.0,15.189999999999978,-2.0,-1.0,0.0,-1.0
164.0,3.3333333333333286,-5.0,-0.1599999999999878,1.0,-2.3400000000000123,-2.0,1.0,16.0,-2.0,-1.0,0.0,-1.0
165.0,3.3333333333333286,-4.775000000000014,-0.7249999999999863,1.0,-1.7750000000000137,-2.4499999999999726,1.0,15.550000000000027,-1.5500000000000274,-1.0,0.0,-1.0
166.0,3.3333333333333286,-4.210000000000015,-1.289999999999985,0.7100000000000151,-1.210000000000015,-3.0,1.0,14.710000000000015,-1.0,-1.0,0.0,-1.0
167.0,3.3333333333333286,-4.0,-1.8549999999999836,0.14500000000001656,-1.0,-3.0,1.0,14.145000000000017,-1.0,-1.0,0.0,-1.0
168.0,2.4933333333333376,-4.0,-2.0,0.0,-0.5800000000000045,-3.0,1.0,13.160000000000009,-0.16000000000000902,-1.0,0.0,-1.0
169.0,2.3333333333333286,-4.0,-2.0,0.0,-0.0150000000000034,-3.969999999999993,1.0,12.030000000000006,0.0,-1.0,0.0,-0.0300000000000068
170.0,1.3333333333333286,-3.9000000000000097,-3.0,0.0,0.0,-4.0,1.0,10.90000000000001,0.09999999999999036,-1.0,0.0,0.0
171.0,1.3333333333333286,-3.0,-3.0,0.0,0.0,-4.0,1.0,9.885000000000007,1.0,-1.0,0.0,0.0
172.0,0.973333333333344,-3.0,-3.0,0.0,0.0,-4.0,1.0,9.320000000000007,1.0,-1.0,0.0,0.0
173.0,0.3333333333333286,-3.0,-3.0,0.0,0.0,-4.0,1.0,8.510000000000018,1.2449999999999908,-1.0,0.0,0.0
174.0,0.0233333333333392,-2.380000000000021,-3.0,0.0,0.0,-4.0,1.0,7.380000000000021,1.8099999999999894,-1.0,0.0,0.0
175.0,-0.5416666666666593,-2.0,-3.0,0.0,0.0,-4.0,1.0,7.0,2.0,-1.0,0.0,0.0
176.0,-0.6666666666666714,-2.0,-3.0,0.0,0.0,-4.0,1.0,6.120000000000027,2.0,-1.0,0.0,0.0
177.0,-0.6666666666666714,-2.0,-3.0,0.0,0.0,-4.0,1.0,5.495000000000015,2.0,-1.0,0.0,0.0
178.0,-0.8066666666666387,-2.0,-3.0,0.0,0.0,-4.0,1.0,5.0,2.0,-1.0,0.0,0.0
179.0,-1.6666666666666714,-1.730000000000027,-3.0,0.0,0.0,-4.0,1.0,4.730000000000027,2.0,-1.0,0.0,0.0
180.0,-1.6666666666666714,-1.0,-2.8000000000000034,0.0,0.0,-4.0,1.0,4.0,2.1999999999999966,-1.0,0.0,0.0
181.0,-1.6666666666666714,-1.0,-2.2350000000000048,0.0,0.0,-3.7350000000000048,1.0,3.7350000000000048,2.7649999999999952,-1.0,0.0,0.0
182.0,-1.6666666666666714,-1.0,-2.0,0.0,0.0,-3.170000000000006,1.0,3.170000000000006,3.0,-1.0,0.0,0.0
183.0,-1.6666666666666714,-1.0,-2.0,0.0,0.0,-3.0,1.0,3.0,3.0,-0.21000000000001517,0.0,0.0
184.0,-1.6666666666666714,-1.0,-2.0,0.0,0.0,-3.0,1.0,3.0,3.0,0.0,0.0,0.0
185.0,-2.6666666666666714,-1.0,-2.0,0.0,-0.02499999999998956,-3.0,1.0,3.0,3.0,0.0,0.0,0.0
186.0,-2.6666666666666714,-1.0,-2.0,0.0,-0.5899999999999881,-3.0,1.0,3.0,3.0,0.0,0.0,0.0
187.0,-2.6666666666666714,-1.0,-2.0,0.0,-1.0,-3.0,1.0,2.6900000000000266,3.3099999999999734,0.0,0.0,0.0
188.0,-2.6666666666666714,-1.0,-2.0,0.0,-1.0,-3.0,1.0,2.0,4.0,0.0,0.0,0.0
189.0,-2.6666666666666714,-1.2849999999999837,-2.0,0.0,-1.0,-3.0,1.0,2.0,4.0,0.0,0.0,0.0
190.0,-2.6666666666666714,-1.8499999999999823,-2.0,0.0,-1.0,-3.0,1.0,2.0,4.0,0.0,0.0,0.0
191.0,-2.6666666666666714,-2.0,-2.0,0.8299999999999884,-1.0,-3.0,1.0,2.0,4.0,0.0,0.0,0.0
192.0,-2.6666666666666714,-2.0,-1.040000000000009,1.0,-1.0,-3.0,1.0,2.0,4.0,0.0,0.0,0.0
193.0,-2.6666666666666714,-2.0,-1.0,1.0,-1.0,-3.0,1.0,2.0,4.0,0.0,0.0,0.0
194.0,-2.6666666666666714,-2.0,-1.0,1.0,-1.0,-3.0,1.0,2.0,4.0,0.0,0.0,0.0
195.0,-2.8416666666666623,-2.174999999999991,-1.0,1.0,-1.0,-3.0,1.0,2.0,4.0,0.0,0.0,0.0
196.0,-3.406666666666661,-2.7399999999999896,-1.0,1.0,-1.4799999999999793,-3.0,1.0,2.0,4.0,0.0,0.0,0.0
197.0,-3.6666666666666714,-3.0,-1.0,1.0,-2.0,-3.0,1.0,2.0,4.0,0.0,0.0,0.0
198.0,-3.6666666666666714,-3.0,-1.0,1.0,-2.0,-3.0,1.7399999999999736,2.0,4.0,0.0,0.0,0.0
199.0,-3.6666666666666714,-3.4349999999999854,-1.0,1.0,-2.0,-3.0,2.0,2.0,4.0,0.0,0.0,0.0
200.0,-3.6666666666666714,-3.999999999999984,-1.0,1.9999999999999678,-2.0,-3.0,2.0,2.0,4.0,0.0,0.0,0.0
201.0,-4.666666666666671,-4.0,-1.0,2.0,-2.0,-3.0,2.0,2.0,3.0,0.0,0.0,0.0
202.0,-4.666666666666671,-4.2599999999999705,-1.0,2.0,-2.0,-3.0,2.2599999999999705,2.0,3.0,0.0,0.0,-0.2599999999999705
203.0,-4.861666666666667,-5.0,-1.0,2.0,-2.0,-3.3899999999999912,3.0,2.0,3.0,-0.3899999999999913,-0.19499999999999565,-1.0
204.0,-5.426666666666666,-5.2599999999999945,-1.0,2.259999999999994,-2.0,-4.0,3.0,2.0,3.0,-1.0,-0.7599999999999942,-1.0
205.0,-5.666666666666671,-5.824999999999993,-1.0,2.8249999999999926,-2.3249999999999926,-4.0,3.6499999999999853,2.0,3.0,-1.0,-1.0,-1.6499999999999855
206.0,-6.446666666666654,-6.0,-1.0,3.0,-2.8899999999999912,-4.0,4.0,2.0,3.0,-1.0,-1.0,-2.0
207.0,-6.666666666666671,-6.454999999999989,-1.0,3.0,-3.0,-4.0,4.0,2.0,2.54500000000001,-1.4549999999999899,-1.0,-2.0
208.0,-7.186666666666659,-7.019999999999988,-1.0,3.5199999999999885,-3.0,-4.0,5.0,2.0,2.0199999999999885,-2.0,-2.0,-3.0
209.0,-7.666666666666671,-7.584999999999987,-1.0,4.0,-3.0,-4.0,5.169999999999974,2.0,2.584999999999987,-2.0,-2.0,-3.169999999999974
210.0,-7.966666666666643,-8.149999999999986,-1.0,4.0,-3.0,-4.299999999999971,6.0,2.1499999999999857,3.0,-2.1499999999999857,-2.0,-4.0
211.0,-8.881666666666655,-8.714999999999984,-1.0,4.429999999999968,-3.0,-5.0,6.429999999999968,2.714999999999984,3.214999999999984,-2.714999999999984,-2.429999999999968,-4.214999999999984
212.0,-9.446666666666655,-9.279999999999983,-1.0,5.0,-3.0,-5.0,7.559999999999965,3.0,3.7799999999999825,-3.0,-3.0,-4.7799999999999825
213.0,-10.356666666666634,-9.844999999999981,-1.0,5.344999999999981,-3.0,-5.0,8.344999999999981,3.344999999999981,4.689999999999962,-3.0,-3.344999999999981,-5.344999999999981
214.0,-10.666666666666671,-10.0,-1.0,5.909999999999993,-3.0,-5.0,8.909999999999993,3.909999999999993,5.0,-3.819999999999986,-3.909999999999993,-5.909999999999993
215.0,-11.61666666666666,-10.949999999999989,-1.0,6.0,-3.0,-5.0,9.949999999999989,4.0,5.0,-4.0,-4.0,-6.474999999999994
216.0,-12.246666666666657,-11.539999999999992,-1.0,7.0,-4.0,-5.539999999999993,11.039999999999992,4.539999999999993,5.039999999999993,-4.0,-4.539999999999993,-7.079999999999986
217.0,-13.271666666666663,-12.209999999999983,-1.0,7.0,-4.0,-6.0,11.604999999999992,5.0,5.6049999999999915,-4.209999999999983,-5.0,-8.0
218.0,-14.006666666666652,-13.0,-0.83000000000001,7.33999999999998,-4.16999999999999,-6.0,12.453333333333305,5.16999999999999,6.0,-5.0,-5.33999999999998,-8.33999999999998
219.0,-15.136666666666649,-13.234999999999989,-0.26500000000001145,8.234999999999989,-4.734999999999989,-6.0,13.881666666666638,5.734999999999989,6.4699999999999775,-5.0,-6.234999999999989,-9.469999999999978
220.0,-16.266666666666644,-13.799999999999986,0.0,8.799999999999986,-5.0,-6.0,15.099999999999975,6.299999999999987,7.0,-5.599999999999974,-6.799999999999987,-10.599999999999975
221.0,-17.396666666666643,-14.729999999999972,0.0,9.0,-5.729999999999971,-6.0,15.864999999999986,6.864999999999986,7.729999999999971,-6.0,-7.0,-11.729999999999972
222.0,-18.096666666666657,-15.0,0.0,9.85999999999997,-6.0,-6.429999999999985,17.146666666666622,7.0,8.0,-6.0,-7.859999999999968,-12.429999999999984
223.0,-19.156666666666638,-15.989999999999966,0.0,10.494999999999983,-6.494999999999983,-6.994999999999983,18.488333333333294,7.989999999999966,8.989999999999966,-6.989999999999966,-8.989999999999966,-13.654999999999966
224.0,-20.30666666666663,-17.05999999999998,0.5599999999999814,11.119999999999962,-7.0,-7.0,19.639999999999958,8.119999999999962,9.119999999999962,-7.119999999999963,-9.619999999999962,-15.179999999999945
225.0,-21.666666666666632,-17.624999999999982,1.0,12.0,-7.249999999999968,-7.0,20.99999999999996,9.0,10.0,-8.0,-10.624999999999984,-16.87499999999995
226.0,-22.856666666666666,-18.37999999999999,1.0,12.379999999999988,-8.0,-7.0,22.189999999999994,9.379999999999988,10.0,-8.379999999999988,-11.379999999999988,-18.253333333333327
227.0,-23.761666666666656,-19.254999999999992,1.0,13.254999999999994,-8.509999999999986,-7.254999999999993,23.009999999999987,10.0,10.509999999999986,-9.0,-12.509999999999986,-19.516666666666644
228.0,-25.18666666666665,-20.139999999999983,1.6399999999999832,14.139999999999983,-9.0,-7.819999999999991,24.246666666666652,10.639999999999983,11.0,-9.639999999999983,-13.639999999999983,-21.186666666666646
229.0,-26.436666666666653,-20.88499999999999,2.0,14.884999999999991,-9.76999999999998,-8.0,25.693333333333307,11.0,11.0,-10.0,-14.76999999999998,-22.693333333333307
230.0,-27.56666666666665,-21.899999999999977,2.0,15.449999999999989,-10.0,-8.0,26.44999999999999,11.899999999999977,11.0,-10.899999999999977,-15.449999999999989,-24.19999999999997
231.0,-29.211666666666634,-22.514999999999986,2.0,16.529999999999976,-11.029999999999974,-8.0,27.529999999999976,12.029999999999974,12.0,-11.514999999999988,-16.53499999999997,-25.716666666666622
232.0,-30.826666666666643,-23.15999999999997,2.0,17.579999999999984,-12.079999999999986,-8.0,28.65999999999997,13.079999999999986,12.0,-12.159999999999972,-17.879999999999967,-27.54666666666663
233.0,-31.95666666666664,-24.0,2.289999999999969,18.289999999999967,-12.644999999999984,-8.0,29.644999999999985,13.644999999999984,12.0,-13.0,-19.289999999999967,-29.05333333333329
234.0,-33.08666666666664,-24.419999999999966,3.0,19.209999999999983,-13.209999999999983,-8.209999999999983,30.419999999999966,14.209999999999983,12.0,-13.419999999999966,-20.209999999999983,-30.419999999999966
235.0,-34.21666666666663,-25.27499999999998,3.0,19.77499999999998,-13.77499999999998,-8.77499999999998,31.54999999999996,14.77499999999998,12.0,-14.27499999999998,-21.04999999999996,-31.733333333333285
236.0,-35.34666666666663,-25.83999999999998,3.33999999999998,20.67999999999996,-14.67999999999996,-9.0,32.33999999999998,15.67999999999996,11.32000000000004,-14.83999999999998,-22.29333333333329,-33.239999999999945
237.0,-35.66666666666667,-26.0,3.904999999999992,21.809999999999985,-15.0,-9.0,32.904999999999994,16.0,11.0,-15.809999999999983,-23.746666666666645,-34.74666666666664
238.0,-36.606666666666655,-26.939999999999987,4.0,22.0,-15.939999999999987,-9.0,33.46999999999999,16.939999999999987,10.530000000000006,-16.0,-24.46999999999999,-35.62666666666666
239.0,-37.20166666666666,-27.0,4.069999999999983,23.034999999999993,-16.069999999999983,-9.0,34.03499999999999,17.034999999999993,9.418333333333353,-17.034999999999993,-25.569999999999983,-37.069999999999986
240.0,-37.66666666666667,-27.19999999999998,5.0,23.59999999999999,-17.0,-9.0,34.59999999999999,17.59999999999999,8.066666666666688,-17.59999999999999,-26.59999999999999,-38.19999999999998
241.0,-37.99666666666665,-28.0,5.0,24.16499999999999,-17.329999999999977,-9.0,35.0,18.0,6.780000000000014,-18.16499999999999,-27.329999999999977,-39.16499999999999
242.0,-38.66666666666667,-28.0,5.229999999999987,24.729999999999986,-18.0,-9.0,35.0,18.0,5.720000000000031,-18.729999999999986,-28.459999999999976,-39.95999999999997
243.0,-39.256666666666646,-28.0,5.794999999999986,25.294999999999987,-18.58999999999997,-9.0,35.0,18.0,4.6066666666666825,-19.58999999999997,-29.58999999999997,-41.089999999999975
244.0,-39.66666666666667,-28.0,6.0,25.859999999999985,-19.359999999999985,-9.0,35.0,18.0,3.133333333333387,-20.71999999999997,-30.71999999999997,-42.21999999999997
245.0,-39.66666666666667,-28.0,6.849999999999966,26.849999999999966,-19.924999999999983,-9.0,35.0,17.150000000000034,2.100000000000023,-21.0,-31.849999999999966,-42.92499999999998
246.0,-40.64666666666663,-28.0,7.0,27.0,-20.0,-9.0,35.0,17.0,0.5300000000000549,-21.979999999999965,-32.0,-43.48999999999998
247.0,-40.66666666666667,-27.89000000000004,7.05499999999998,27.10999999999996,-21.0,-9.0,34.0,17.0,-1.1466666666666134,-22.554999999999982,-33.109999999999964,-44.05499999999998
248.0,-40.90666666666664,-27.0,7.619999999999982,28.0,-21.239999999999966,-9.0,34.0,17.0,-2.4933333333333065,-23.239999999999966,-34.0,-44.61999999999998
249.0,-41.66666666666667,-27.0,8.0,28.0,-22.0,-9.0,34.0,16.630000000000013,-3.369999999999987,-24.0,-34.184999999999995,-45.0
250.0,-41.66666666666667,-27.0,8.249999999999991,28.499999999999982,-22.0,-9.0,33.500000000000014,16.0,-4.249999999999992,-24.499999999999982,-34.74999999999999,-45.499999999999986
251.0,-41.66666666666667,-27.0,8.81499999999999,29.0,-22.62999999999998,-9.0,33.0,16.0,-4.814999999999991,-25.31499999999999,-35.62999999999998,-46.0
252.0,-42.04666666666666,-27.0,9.0,29.0,-23.0,-9.0,32.62000000000001,16.0,-4.2400000000000215,-25.87999999999999,-36.0,-46.0
253.0,-42.61166666666666,-27.0,9.0,29.889999999999976,-23.0,-9.0,32.055000000000014,16.0,-3.1100000000000247,-26.0,-36.0,-46.0
254.0,-42.66666666666667,-27.0,9.509999999999986,30.0,-24.0,-9.0,31.98000000000003,16.0,-2.2966666666667126,-26.0,-36.019999999999975,-46.0
255.0,-42.59166666666669,-27.0,10.0,30.0,-24.0,-8.85000000000003,30.925000000000015,16.0,-0.20000000000006107,-26.0,-37.0,-46.0
256.0,-42.026666666666685,-26.720000000000034,10.0,30.0,-24.0,-8.0,30.360000000000017,16.0,2.059999999999933,-26.0,-36.720000000000034,-46.0
257.0,-41.66666666666667,-26.0,10.204999999999988,30.0,-24.409999999999975,-8.0,29.590000000000025,16.0,4.319999999999954,-26.0,-36.0,-45.590000000000025
258.0,-41.66666666666667,-25.460000000000026,10.769999999999987,30.0,-25.0,-8.0,28.460000000000026,16.0,6.849999999999939,-25.460000000000026,-36.0,-44.73000000000001
259.0,-40.99666666666669,-24.33000000000002,11.0,30.0,-25.0,-8.0,27.33000000000002,16.0,9.67499999999995,-24.66500000000001,-35.66500000000001,-44.16500000000001
260.0,-40.66666666666667,-23.20000000000004,11.0,30.0,-25.0,-7.200000000000038,26.20000000000004,16.0,12.33999999999991,-24.10000000000002,-35.10000000000002,-43.20000000000004
261.0,-39.736666666666686,-22.380000000000006,11.929999999999982,30.0,-25.0,-7.0,25.070000000000018,16.464999999999993,15.03199999999996,-23.535000000000007,-35.0,-42.53500000000001
262.0,-39.10666666666672,-20.586666666666737,12.029999999999976,29.940000000000047,-26.0,-6.470000000000025,23.410000000000075,17.0,18.20999999999983,-22.233333333333416,-33.94000000000005,-41.23333333333342
263.0,-37.945000000000036,-19.01666666666671,12.594999999999986,29.0,-26.0,-5.905000000000014,21.715000000000042,17.0,22.06999999999992,-20.445000000000036,-32.81000000000003,-39.41333333333337
264.0,-36.5733333333334,-17.29333333333339,13.0,28.680000000000046,-26.0,-5.340000000000023,20.02000000000007,17.0,25.235999999999894,-19.180000000000046,-31.680000000000046,-37.800000000000075
265.0,-35.36666666666668,-15.975000000000012,13.224999999999994,28.0,-26.0,-5.0,18.32500000000002,17.224999999999994,27.87999999999997,-17.975000000000012,-30.775000000000006,-36.066666666666684
266.0,-33.9366666666667,-14.270000000000028,13.789999999999992,27.420000000000016,-25.710000000000008,-4.420000000000017,16.4366666666667,17.789999999999992,30.533999999999963,-16.366666666666696,-29.823333333333355,-34.27000000000003
267.0,-31.74666666666669,-12.435000000000015,14.0,26.645000000000007,-25.145000000000007,-4.0,14.720000000000011,18.0,32.91999999999998,-14.720000000000011,-28.38666666666668,-32.08000000000002
268.0,-29.906666666666716,-10.880000000000045,14.0,26.080000000000016,-25.0,-3.160000000000031,13.213333333333374,18.0,34.759999999999955,-12.933333333333389,-26.880000000000038,-29.960000000000054
269.0,-28.373333333333353,-9.535000000000009,14.0,25.03000000000001,-25.0,-3.0,11.545000000000012,18.484999999999996,35.64666666666667,-11.373333333333338,-25.53500000000001,-28.373333333333346
270.0,-26.816666666666737,-8.200000000000047,14.0,23.900000000000038,-24.0,-2.0,9.300000000000077,19.0,37.04999999999998,-9.300000000000077,-24.166666666666732,-26.300000000000075
271.0,-24.70666666666671,-6.77000000000002,14.0,22.77000000000002,-23.77000000000002,-2.0,7.15500000000003,19.0,37.61499999999999,-7.078333333333371,-22.398333333333362,-24.078333333333372
272.0,-22.446666666666744,-5.520000000000049,14.0,21.820000000000018,-23.0,-1.640000000000036,5.640000000000036,19.0,38.0,-5.186666666666716,-21.08000000000004,-21.994666666666735
273.0,-20.18666666666674,-4.095000000000042,14.0,21.010000000000034,-22.510000000000034,-1.0,4.265000000000051,19.0,37.75500000000002,-3.5166666666667235,-19.43500000000006,-19.673000000000076
274.0,-17.926666666666737,-2.8800000000000336,13.380000000000033,19.776666666666703,-21.690000000000015,-0.6900000000000167,2.3633333333333972,19.0,37.19000000000002,-1.8400000000000434,-17.363333333333397,-17.260000000000066
275.0,-15.666666666666767,-1.7500000000000482,13.0,18.333333333333396,-20.75000000000005,-0.1250000000000241,1.1666666666667,19.0,36.25000000000005,0.04166666666657948,-15.666666666666728,-15.000000000000096
276.0,-13.553333333333399,-1.0600000000000154,13.0,17.12000000000003,-20.060000000000016,0.0,0.12000000000003086,19.0,35.12000000000003,1.8199999999999537,-13.866666666666722,-12.476000000000074
277.0,-11.981666666666664,-0.48999999999999805,12.495,16.48833333333333,-18.99,0.0,-1.3466666666666647,19.0,34.48833333333333,2.511666666666669,-12.488333333333332,-10.314999999999992
278.0,-9.886666666666727,0.5699999999999859,11.930000000000014,15.1466666666667,-17.930000000000014,0.0,-2.8533333333332997,19.0,33.100000000000044,3.8533333333332997,-11.076666666666714,-8.220000000000056
279.0,-7.76166666666669,1.0,11.365000000000006,13.730000000000013,-17.365000000000006,0.0,-4.269999999999988,19.0,31.48666666666668,5.269999999999988,-9.095000000000018,-6.095000000000018
280.0,-6.40000000000002,1.0,10.800000000000013,12.800000000000013,-16.600000000000026,0.0,-5.199999999999987,18.80000000000001,30.400000000000038,6.399999999999975,-7.7333333333333485,-4.466666666666702
281.0,-5.028333333333384,1.5299999999999736,10.235000000000014,11.881666666666694,-15.470000000000026,0.0,-6.029999999999974,18.235000000000014,28.70500000000004,7.706666666666629,-6.450000000000044,-2.9600000000000346
282.0,-3.1766666666667063,2.659999999999977,9.670000000000012,10.453333333333363,-14.340000000000023,0.0,-7.159999999999977,18.0,27.120000000000033,9.103333333333305,-4.786666666666696,-1.2333333333333734
283.0,-2.140000000000028,3.3949999999999796,9.10500000000002,9.21000000000004,-13.21000000000004,0.0,-8.28999999999996,17.21000000000004,25.613333333333383,10.28999999999996,-3.2800000000000527,-0.140000000000028
284.0,-0.773333333333365,3.9599999999999898,8.08000000000002,8.08000000000002,-12.08000000000002,0.0,-8.95999999999999,17.0,24.106666666666694,10.95999999999999,-2.0800000000000205,0.9199999999999795
285.0,0.06666666666659792,4.524999999999975,7.975000000000025,7.266666666666731,-11.45000000000005,0.5249999999999743,-9.524999999999974,16.475000000000026,23.450000000000053,12.024999999999974,-0.9500000000000514,2.391666666666602
286.0,1.513333333333299,5.17999999999997,7.410000000000014,5.82000000000003,-10.320000000000029,1.0,-10.089999999999986,15.910000000000014,22.32000000000003,12.679999999999971,0.17999999999997046,3.6799999999999704
287.0,2.3333333333333286,6.0,7.0,4.690000000000049,-9.345000000000024,1.0,-10.654999999999976,15.345000000000024,21.345000000000024,13.654999999999976,1.0,4.654999999999975
288.0,2.773333333333313,6.439999999999984,6.560000000000016,3.780000000000008,-8.560000000000015,1.0,-11.0,14.780000000000008,20.560000000000016,14.0,1.4399999999999846,5.439999999999984
289.0,3.9033333333333102,7.0,6.0,3.215000000000009,-7.71500000000001,1.0,-11.0,14.215000000000009,19.430000000000017,14.56999999999998,2.5699999999999816,6.28499999999999
290.0,4.333333333333329,7.0,5.650000000000007,2.3000000000000127,-6.800000000000013,1.0,-11.0,13.300000000000013,18.30000000000001,15.0,3.6999999999999873,6.849999999999993
291.0,5.163333333333296,7.829999999999967,5.085000000000017,1.1700000000000328,-6.085000000000017,1.0,-11.0,13.0,17.170000000000034,15.829999999999966,4.0,7.829999999999967
292.0,5.333333333333329,8.0,5.0,0.5200000000000051,-5.520000000000005,1.0,-11.0,12.04000000000001,16.520000000000007,16.0,4.95999999999999,8.0
293.0,5.423333333333288,8.0,4.4550000000000205,0.0,-4.910000000000041,1.5449999999999795,-10.910000000000041,11.455000000000021,15.410000000000041,16.0,6.0,8.544999999999979
294.0,6.333333333333329,8.0,4.0,-0.10999999999998908,-4.0,2.0,-10.0,10.890000000000011,14.280000000000022,16.0,6.219999999999978,9.0
295.0,6.333333333333329,8.0,3.6500000000000385,-0.6749999999999807,-3.6500000000000385,2.0,-10.0,10.325000000000019,13.325000000000019,16.0,7.0,9.0
296.0,6.333333333333329,8.0,3.0,-1.0,-3.0,2.0,-9.760000000000018,9.760000000000018,12.760000000000018,16.0,7.479999999999964,9.239999999999982
297.0,6.333333333333329,8.0,3.0,-1.609999999999964,-3.0,2.0,-9.195000000000018,9.195000000000018,11.890000000000036,16.0,8.0,9.804999999999982
298.0,6.333333333333329,8.0,3.0,-2.0,-3.0,2.0,-9.0,8.630000000000026,11.130000000000026,16.0,8.369999999999974,10.0
299.0,6.333333333333329,8.0,3.0,-2.8699999999999664,-3.0,2.0,-9.0,8.065000000000017,10.130000000000033,16.0,8.934999999999983,10.0
300.0,6.333333333333329,8.0,2.0,-3.0,-2.0,2.0,-8.0,7.5,9.5,16.0,9.0,10.0
301.0,6.333333333333329,8.0,2.0,-3.1299999999999693,-2.0,2.0,-8.0,6.935000000000016,8.870000000000031,15.935000000000015,9.064999999999985,10.0
302.0,6.333333333333329,7.870000000000007,2.0,-4.0,-1.7400000000000142,2.0,-8.0,6.370000000000007,7.870000000000007,15.370000000000006,9.629999999999994,10.0
303.0,6.333333333333329,7.305000000000014,2.0,-4.0,-1.0,2.0,-8.0,5.610000000000028,7.305000000000014,15.0,10.0,10.0
304.0,6.333333333333329,7.0,2.0,-4.259999999999986,-1.0,2.0,-7.740000000000014,5.0,6.740000000000014,15.0,10.0,10.0
305.0,6.333333333333329,7.0,2.0,-4.824999999999987,-0.6750000000000129,2.0,-7.175000000000013,4.350000000000025,6.175000000000013,14.675000000000013,10.0,10.0
306.0,6.333333333333329,7.0,2.0,-5.0,-0.11000000000002119,2.0,-7.0,4.0,5.220000000000042,14.11000000000002,10.0,10.0
307.0,6.333333333333329,7.0,2.0,-5.0,0.0,2.0,-7.0,3.090000000000023,5.0,14.0,10.0,10.0
308.0,6.333333333333329,7.0,1.960000000000054,-5.0,0.0,2.0,-7.0,2.960000000000054,5.0,13.960000000000054,10.0,10.0
309.0,6.333333333333329,7.0,1.0,-5.169999999999969,0.0,2.0,-7.0,2.0,5.0,13.0,10.0,10.0
310.0,6.03333333333338,7.0,1.0,-6.0,0.0,2.0,-7.0,2.0,4.700000000000052,13.0,10.0,10.0
311.0,5.333333333333329,7.0,1.0,-6.0,0.429999999999982,2.0,-7.0,2.0,4.0,12.785000000000009,10.0,10.0
312.0,5.333333333333329,7.0,1.0,-6.0,1.0,2.0,-7.0,1.7200000000000104,4.0,12.22000000000001,10.0,10.0
313.0,5.333333333333329,7.0,1.0,-6.0,1.0,2.0,-7.0,1.1550000000000078,3.3100000000000156,12.0,10.0,9.655000000000008
314.0,5.333333333333329,7.0,1.0,-6.0,1.0,2.0,-7.0,1.0,3.0,11.590000000000018,10.0,9.090000000000018
315.0,4.383333333333342,7.0,1.0,-6.0,1.0,2.0,-7.0,0.05000000000001281,3.0,11.025000000000006,10.0,9.0
316.0,4.333333333333329,7.0,1.0,-6.0,1.0,2.0,-7.0,0.0,2.0,10.960000000000022,10.0,9.0
317.0,4.333333333333329,7.0,1.0,-6.0,1.0,2.0,-7.0,-0.20999999999997623,2.0,10.395000000000012,10.0,9.0
318.0,4.333333333333329,7.0,1.0,-6.0,1.0,2.0,-6.660000000000041,-1.0,1.660000000000041,10.0,10.0,9.0
319.0,4.333333333333329,7.0,1.0,-6.0,1.0,2.0,-6.0,-1.0,1.0,10.0,10.0,9.0
320.0,4.333333333333329,7.0,1.0,-6.0,1.0,2.0,-6.0,-1.0,1.0,9.700000000000019,10.0,9.0
321.0,4.333333333333329,7.0,1.0,-6.0,1.0,2.0,-6.0,-1.0,1.0,9.135000000000026,10.0,9.0
322.0,4.333333333333329,7.0,1.0,-6.0,1.0,2.0,-6.0,-1.429999999999982,1.0,9.0,9.140000000000036,9.0
323.0,4.333333333333329,7.0,1.0,-6.0,1.0,2.0,-6.0,-1.9949999999999668,1.0,9.0,9.0,9.0
324.0,4.453333333333295,7.0,1.0,-7.0,1.0,2.0,-6.0,-2.0,1.0,8.440000000000017,9.0,9.0
325.0,5.333333333333329,7.0,1.0,-7.0,1.0,2.0,-6.0,-2.0,1.0,8.0,9.0,9.0
326.0,5.333333333333329,7.0,1.0,-7.0,1.0,2.0,-6.0,-2.0,1.0,8.0,9.0,9.0
327.0,4.823333333333359,7.0,1.0,-7.0,1.0,2.0,-6.0,-2.0,0.7450000000000151,8.0,9.0,9.0
328.0,4.333333333333329,7.0,1.0,-7.0,1.0,2.0,-6.0,-2.0,0.18000000000001415,8.0,9.0,9.0
329.0,4.333333333333329,7.0,1.0,-7.0,1.0,2.0,-6.0,-2.0,0.0,7.230000000000044,9.0,9.0
330.0,4.333333333333329,7.0,1.0,-7.0,1.0,2.0,-6.0,-2.0,0.0,7.0,9.0,9.0
331.0,4.333333333333329,7.0,1.0,-7.0,1.0,2.0,-6.0,-2.0149999999999717,0.0,7.0,9.0,9.0
332.0,4.333333333333329,7.0,1.0,-6.920000000000017,1.0,2.0,-6.0,-2.579999999999983,0.0,7.0,9.0,9.0
333.0,4.333333333333329,7.0,1.0,-6.355000000000027,1.0,2.0,-6.0,-3.0,0.0,7.0,9.0,9.0
334.0,4.333333333333329,6.580000000000047,1.0,-6.0,1.0,2.0,-6.0,-3.0,0.0,7.0,9.0,9.0
335.0,4.333333333333329,6.0,1.0,-6.0,1.0,2.0,-6.0,-3.0,0.0,6.450000000000052,9.0,9.0
336.0,4.333333333333329,6.0,1.0,-6.0,1.0,2.0,-6.0,-3.0,0.0,6.0,9.0,9.0
337.0,3.928333333333347,6.0,1.0,-6.0,1.0,2.0,-6.404999999999982,-3.0,0.0,6.0,9.0,9.0
338.0,3.3633333333333364,6.0,1.0,-6.0,1.0,2.0,-6.969999999999993,-3.0,-0.9399999999999846,6.0,8.060000000000015,9.0
339.0,3.3333333333333286,6.0,1.0,-6.0,1.0,2.0,-7.0,-3.0,-1.0,6.0,8.0,9.0
340.0,3.3333333333333286,6.0,1.0,-6.0,1.0,2.0,-7.0,-3.0,-1.0,6.0,8.0,9.0
341.0,3.3333333333333286,5.835000000000022,1.0,-6.0,1.0,2.0,-7.0,-3.0,-1.0,6.0,8.0,9.0
342.0,3.3333333333333286,5.27000000000002,1.0,-6.0,1.0,2.0,-7.0,-3.45999999999996,-1.0,5.54000000000004,8.0,9.0
343.0,3.3333333333333286,5.0,1.0,-6.0,1.0,2.0,-7.0,-4.0,-1.0,5.0,8.0,9.0
344.0,3.3333333333333286,5.0,1.0,-6.0,1.0,2.0,-7.0,-3.640000000000027,-1.0,5.0,8.0,9.0
345.0,3.3333333333333286,5.424999999999981,1.0,-6.0,1.0,2.0,-7.0,-3.0750000000000193,-1.0,5.0,8.0,9.0
346.0,3.3333333333333286,5.989999999999966,1.0,-6.0,1.0,2.0,-7.0,-3.0,-1.0,5.0,8.0,9.0
347.0,3.8883333333333105,6.0,1.0,-6.0,1.0,2.0,-7.0,-3.0,-0.445000000000018,5.0,8.0,9.0
348.0,4.333333333333329,6.0,1.0,-6.0,1.0,2.0,-7.0,-3.0,0.0,5.0,8.0,9.0
349.0,4.333333333333329,6.0,1.0,-6.0,1.0,2.0,-7.0,-3.0,0.0,5.0,8.0,9.0
350.0,4.333333333333329,6.249999999999984,1.0,-6.0,1.0,2.0,-7.0,-3.0,0.0,5.0,8.0,9.0
351.0,4.333333333333329,6.814999999999984,1.0,-6.0,1.0,2.0,-7.0,-3.0,0.0,5.0,8.0,9.0
352.0,4.333333333333329,7.0,1.0,-6.0,1.0,2.0,-7.0,-3.0,0.0,5.0,8.0,9.759999999999954
353.0,4.333333333333329,7.0,1.0,-6.0,1.0,2.0,-7.0,-3.0,0.0,5.0,8.0,10.0
354.0,4.333333333333329,7.0099999999999705,1.0,-6.0,1.0,2.0,-7.0,-3.0,0.0,5.0,8.0,10.0
355.0,4.333333333333329,7.574999999999982,1.0,-6.0,1.0,2.0,-7.0,-3.0,0.0,5.0,8.0,10.0
356.0,4.613333333333272,8.0,1.0,-6.0,1.0,2.0,-7.0,-3.0,0.0,5.0,8.0,10.0
357.0,5.333333333333329,8.0,1.0,-6.40999999999995,1.0,2.0,-7.0,-3.0,0.0,5.0,8.0,10.0
358.0,5.333333333333329,8.0,1.0,-7.0,1.0,2.0,-7.0,-3.0,0.0,5.0,8.0,10.0
359.0,5.333333333333329,8.0,1.0,-7.0,1.0,2.0,-7.0,-3.0,0.0,5.0,8.0,10.0
360.0,5.333333333333329,8.0,1.0,-7.0,1.0,2.0,-7.0,-2.600000000000019,0.0,5.0,8.0,10.0
361.0,5.333333333333329,8.0,1.0,-7.0,1.0,2.0,-7.0,-2.035000000000009,0.0,5.0,8.0,10.0
362.0,5.333333333333329,8.0,1.0,-7.0,1.0,2.0,-7.0,-2.0299999999999754,0.0,5.0,8.0,10.0
363.0,5.523333333333301,8.0,1.0,-7.0,1.0,2.0,-7.0,-2.594999999999986,0.0,5.0,8.0,10.0
364.0,6.333333333333329,8.0,1.0,-7.0,1.0,2.0,-7.0,-3.0,0.0,5.0,8.0,10.0
365.0,6.333333333333329,8.0,1.0,-7.0,1.0,2.0,-7.0,-3.0,0.0,5.0,8.0,10.0
366.0,6.333333333333329,8.0,1.0,-7.0,1.0,2.0,-7.0,-3.0,0.0,5.0,8.0,10.0
367.0,6.333333333333329,8.0,1.0,-7.0,1.0,2.0,-7.0,-3.0,0.0,5.0,8.0,10.0
368.0,6.333333333333329,8.0,1.0,-7.0,1.0,2.0,-7.0,-3.0,0.0,5.0,8.0,10.0
369.0,6.333333333333329,8.0,1.0,-7.0,1.96999999999993,2.0,-7.0,-3.0,0.0,5.0,8.0,10.0
370.0,6.333333333333329,8.0,1.0,-7.0,1.9500000000000193,2.0,-7.549999999999981,-3.0,0.0,5.0,8.0,10.0
371.0,6.218333333333338,8.0,1.0,-7.0,1.38500000000001,2.0,-8.0,-3.0,0.0,5.0,8.0,10.0
372.0,5.653333333333347,8.0,1.0,-7.0,1.0,2.0,-8.0,-3.0,0.0,5.0,8.0,10.0
373.0,5.333333333333329,8.0,1.0,-7.0,1.0,2.489999999999966,-8.0,-3.0,0.0,5.0,8.0,10.0
374.0,5.333333333333329,8.0,1.0,-7.0,1.0,3.0,-8.0,-3.0,0.0,5.0,8.0,10.0
375.0,5.333333333333329,8.0,1.0,-7.0,1.0,3.0,-8.0,-3.0,0.0,5.0,8.0,10.0
376.0,5.333333333333329,8.0,1.0,-7.0,1.0,3.0,-8.0,-3.0,0.0,5.0,8.0,10.0
377.0,5.333333333333329,8.0,1.0,-7.0,1.0,3.0,-7.995000000000031,-3.0,0.0,5.0,8.0,10.0
378.0,5.333333333333329,8.0,1.0,-7.0,1.0,3.0,-7.430000000000018,-3.0,0.0,5.0,8.0,10.0
379.0,5.333333333333329,8.0,1.0,-7.0,1.0,3.0,-7.0,-3.0,0.0,5.0,8.0,10.0
380.0,5.333333333333329,8.0,1.0,-7.0,1.0,3.0,-7.0,-3.0,0.0,5.0,8.0,10.0
381.0,5.333333333333329,8.0,1.0,-7.0,1.0,3.0,-7.0,-3.0,0.0,5.0,8.0,10.0
382.0,5.333333333333329,8.0,1.0,-7.0,1.0,3.0,-7.0,-3.0,0.0,5.0,8.329999999999988,10.0
383.0,5.333333333333329,8.0,1.0,-7.0,1.0,3.0,-7.0,-3.0,0.0,5.0,8.89499999999998,10.0
384.0,5.333333333333329,8.0,1.0,-7.0,1.0,3.0,-7.0,-3.0,0.0,5.0,9.0,10.0
385.0,5.333333333333329,8.0,1.0,-7.0,1.0,3.0,-7.024999999999975,-3.0,0.0,5.0,9.0,10.0
386.0,5.333333333333329,8.0,1.0,-7.0,1.0,3.0,-7.589999999999986,-3.0,0.0,5.0,9.0,10.0
387.0,5.333333333333329,8.0,1.0,-7.0,1.0,2.690000000000049,-8.0,-3.0,0.0,5.0,9.0,10.0
388.0,5.333333333333329,8.0,1.0,-7.0,1.0,2.0,-8.0,-3.0,0.0,5.0,9.0,10.0
389.0,5.333333333333329,8.0,1.0,-7.0,1.0,2.0,-8.0,-3.0,0.0,5.0,9.0,10.0
390.0,5.333333333333329,8.0,1.0,-7.0,1.0,2.0,-8.0,-3.0,-0.3499999999999711,5.0,8.300000000000058,10.0
391.0,5.333333333333329,7.1700000000000434,1.0,-7.0,1.0,2.0,-8.0,-3.4149999999999783,-0.9149999999999782,5.0,8.0,10.0
392.0,5.333333333333329,7.0,1.0,-7.0,1.0,2.0,-8.0,-3.979999999999964,-1.0,5.0,8.0,10.0
393.0,5.333333333333329,7.0,1.0,-7.0,1.0,2.0,-8.0,-4.0,-1.0,5.0,8.0,10.0
394.0,5.333333333333329,7.0,1.0,-7.0,1.0,2.0,-8.0,-4.0,-1.0,5.0,8.0,10.0
395.0,5.333333333333329,7.0,1.0,-7.0,1.0,2.0,-8.0,-4.0,-1.0,5.0,8.0,10.0
396.0,5.333333333333329,7.0,1.0,-7.0,1.0,2.0,-8.0,-4.0,-1.0,5.0,8.0,10.0
397.0,5.333333333333329,7.0,1.0,-7.0,1.0,2.0,-8.0,-4.0,-1.0,5.0,8.0,10.0
398.0,5.333333333333329,7.0,1.0,-7.0,1.0,2.0,-8.0,-4.0,-1.0,5.0,8.0,9.630000000000026
399.0,5.333333333333329,7.0,1.0,-7.0,1.0,2.0,-8.869999999999967,-4.0,-1.0,5.0,8.0,9.065000000000017
400.0,5.333333333333329,7.0,1.0,-7.0,1.0,2.0,-9.0,-4.0,-1.0,5.0,8.0,9.0
401.0,5.333333333333329,7.0,1.0,-7.0,1.0,2.0,-9.0,-4.0,-2.0,5.0,8.0,9.0
402.0,5.333333333333329,7.0,1.0,-7.0,1.0,2.0,-9.0,-4.0,-2.0,5.0,8.0,9.0
403.0,5.333333333333329,7.0,1.0,-7.0,1.0,2.0,-9.0,-4.194999999999974,-2.0,5.0,8.0,9.0
404.0,5.333333333333329,7.0,1.0,-7.0,1.0,2.0,-9.0,-4.7599999999999705,-2.0,5.0,8.0,9.0
405.0,5.333333333333329,7.0,1.0,-7.0,1.0,2.0,-9.0,-5.0,-2.0,5.0,8.0,9.0
406.0,5.333333333333329,7.0,1.0,-7.0,1.3899999999999788,2.0,-9.0,-5.0,-2.0,5.0,8.0,9.0
407.0,5.333333333333329,7.0,1.0,-7.0,1.9549999999999885,2.0,-9.0,-5.0,-2.0,5.0,8.0,9.0
408.0,5.333333333333329,7.0,1.0,-7.0,2.0,2.0,-9.0,-5.0,-2.0,5.0,8.0,9.019999999999973
409.0,5.333333333333329,7.0,1.0,-7.0,2.0,2.0,-9.0,-5.0,-2.0,5.0,8.0,9.584999999999985
410.0,5.333333333333329,7.0,1.0,-7.0,2.0,2.0,-9.0,-5.0,-2.0,5.0,8.0,10.0
411.0,5.333333333333329,7.0,1.0,-7.0,2.0,2.0,-9.0,-5.0,-1.7850000000000228,5.0,8.0,10.0
412.0,5.333333333333329,7.0,1.0,-7.0,2.0,2.0,-9.0,-5.0,-1.2200000000000244,5.0,8.0,10.0
413.0,5.333333333333329,7.0,1.0,-7.0,2.0,2.0,-9.0,-5.0,-1.0,5.0,8.0,10.0
414.0,5.333333333333329,7.0,1.0,-7.0,2.0,2.0,-9.0,-5.0,-1.0,5.0,8.0,10.0
415.0,5.333333333333329,7.0,1.0,-7.0,2.0,2.0,-9.0,-5.0,-1.0,5.0,8.0,10.0
416.0,5.333333333333329,7.0,1.0,-7.0,2.0,2.0,-9.0,-5.0,-1.0,5.0,8.0,10.0
417.0,5.333333333333329,7.0,1.0,-7.0,2.0,2.0,-9.0,-5.0,-1.0,5.0,8.0,10.0
418.0,5.333333333333329,7.1699999999999795,1.0,-7.0,2.0,2.0,-9.0,-5.0,-1.0,5.0,8.0,10.0
419.0,5.333333333333329,7.734999999999981,1.0,-7.0,2.0,2.0,-9.0,-5.0,-1.0,5.0,8.0,10.0
420.0,5.333333333333329,8.0,1.0,-7.0,2.0,2.0,-9.0,-5.0,-1.0,5.0,8.0,10.0
421.0,5.333333333333329,8.0,1.0,-7.0,2.0,2.0,-9.0,-5.0,-1.0,5.0,8.0,10.0
422.0,5.333333333333329,8.0,1.0,-7.0,2.0,2.0,-9.0,-5.0,-1.0,5.0,8.0,10.0
423.0,5.333333333333329,8.0,1.0,-7.0,2.0,2.0,-9.0,-5.0,-1.0,5.989999999999934,8.0,10.0
424.0,5.333333333333329,8.0,1.0,-7.0,2.0,2.0,-9.0,-5.0,-1.0,6.0,8.0,10.0
425.0,5.333333333333329,8.0,1.0,-7.0,2.0,2.0,-9.0,-5.0,-0.8750000000000321,6.0,8.0,10.0
426.0,5.333333333333329,8.0,1.0,-7.0,2.0,2.0,-9.0,-5.0,-0.3100000000000276,6.0,8.379999999999944,10.0
427.0,5.333333333333329,8.0,1.0,-7.0,2.0,2.0,-9.0,-5.0,0.0,6.0,9.0,10.0
428.0,5.333333333333329,8.0,1.0,-7.0,2.0,2.0,-9.0,-5.0,0.0,6.0,9.0,10.0
429.0,5.333333333333329,8.0,1.0,-7.0,2.0,2.0,-9.0,-5.0,0.0,6.0,9.0,10.0
430.0,5.333333333333329,8.0,1.0,-7.0,2.0,2.0,-9.0,-5.0,0.4499999999999872,6.0,9.0,10.0
431.0,6.333333333333329,8.0,1.0,-7.0,2.0,2.0,-9.0,-5.0,1.0,6.0,9.0,10.0
432.0,6.333333333333329,8.159999999999966,1.0,-7.0,2.0,2.0,-9.0,-5.0,1.0,6.0,9.0,10.0
433.0,6.333333333333329,9.0,1.0,-7.0,2.0,2.0,-9.0,-4.710000000000054,1.144999999999973,6.289999999999946,9.0,10.0
434.0,6.333333333333329,9.0,1.0,-7.419999999999953,2.0,2.2099999999999764,-9.0,-4.0,1.7099999999999762,7.0,9.0,10.0
435.0,6.333333333333329,9.0,1.0,-8.0,2.0,2.774999999999974,-9.0,-4.0,2.0,7.0,9.0,10.0
436.0,6.333333333333329,9.0,1.0,-8.0,2.0,3.0,-9.0,-4.0,2.0,7.0,9.0,10.0
437.0,6.333333333333329,9.0,1.0,-8.0,2.0,3.0,-8.19000000000005,-4.0,2.809999999999951,7.0,9.0,10.80999999999995
438.0,6.333333333333329,9.0,1.0,-8.0,2.0,3.0,-8.0,-4.0,3.0,7.0,9.0,11.0
439.0,6.333333333333329,9.534999999999977,1.0,-8.0,1.0,3.0,-8.0,-3.0,3.534999999999977,7.534999999999977,9.0,11.0
440.0,6.333333333333329,10.0,1.1999999999999744,-8.0,1.0,3.0,-8.0,-3.0,4.0,8.0,9.199999999999974,11.0
441.0,6.333333333333329,10.0,2.0,-8.0,1.0,3.0,-8.0,-3.0,4.0,8.0,10.0,11.0
442.0,6.333333333333329,10.0,2.0,-8.0,1.0,3.0,-8.0,-3.0,4.45999999999996,8.0,10.0,11.0
443.0,6.333333333333329,10.0,2.0,-8.0,1.0,3.0,-8.0,-3.0,5.0,8.0,10.0,11.0
444.0,6.333333333333329,10.0,2.0,-8.0,1.0,3.0,-7.280000000000054,-2.640000000000027,5.0,8.359999999999973,10.0,11.0
445.0,6.333333333333329,10.849999999999962,2.0,-8.0,1.0,3.4249999999999807,-7.0,-2.0750000000000193,5.0,8.924999999999981,10.0,11.0
446.0,6.333333333333329,11.0,2.0,-8.0,1.0,3.989999999999966,-7.0,-2.0,5.0,9.0,10.0,11.0
447.0,6.333333333333329,11.0,2.0,-9.0,1.0,4.0,-7.0,-2.0,5.109999999999957,9.0,10.0,12.0
448.0,6.333333333333329,11.0,2.0,-9.0,1.0,4.0,-7.0,-2.0,6.0,9.239999999999933,10.239999999999933,12.0
449.0,6.333333333333329,11.0,2.0,-9.0,1.0,4.0,-7.0,-2.0,6.0,10.0,11.0,12.0
450.0,6.333333333333329,11.249999999999968,2.0,-9.0,1.0,4.0,-7.0,-2.0,6.499999999999936,10.0,11.0,12.0
451.0,6.333333333333329,11.814999999999985,2.0,-9.0,1.0,4.0,-7.0,-2.0,7.0,10.0,11.0,12.0
452.0,6.333333333333329,12.0,2.0,-9.0,1.0,4.0,-7.0,-2.0,7.0,10.379999999999978,11.0,12.0
453.0,6.333333333333329,12.0,2.0,-9.0,1.0,4.444999999999986,-7.0,-1.1100000000000283,7.0,10.944999999999986,11.0,12.0
454.0,6.333333333333329,12.0,2.0,-9.0,1.0,5.0,-7.0,-1.0,8.0,11.0,11.0,12.0
455.0,6.333333333333329,12.0,2.0,-9.0,1.0,5.0,-7.0,-1.0,8.0,11.0,11.074999999999982,12.0
456.0,6.333333333333329,12.0,2.0,-9.0,1.0,5.0,-7.0,-1.0,8.0,11.139999999999972,11.639999999999972,12.0
457.0,6.333333333333329,12.0,2.0,-9.0,1.0,5.0,-7.0,-1.0,8.40999999999995,11.704999999999975,12.0,12.0
458.0,6.333333333333329,12.0,2.539999999999946,-9.0,1.0,5.0,-7.0,-1.0,9.0,12.0,12.0,12.0
459.0,6.333333333333329,12.0,3.0,-9.0,1.0,5.0,-7.0,-1.0,9.0,12.0,12.0,12.0
460.0,6.333333333333329,12.0,3.0,-9.0,0.6000000000000256,5.0,-7.0,-1.0,9.0,12.0,12.0,12.0
461.0,6.333333333333329,12.0,3.0,-9.0,0.03500000000003889,5.0,-7.0,-0.07000000000007778,9.46499999999996,12.46499999999996,12.0,12.0
462.0,6.333333333333329,12.529999999999976,3.0,-9.0,0.0,5.529999999999975,-7.0,0.0,10.0,13.0,12.0,12.0
463.0,6.333333333333329,13.0,3.0,-9.094999999999986,0.0,6.0,-7.0,0.0,10.0,13.0,12.0,11.810000000000027
464.0,6.333333333333329,13.0,3.0,-9.659999999999977,0.0,6.0,-7.0,0.0,10.159999999999977,13.0,12.0,11.0
465.0,6.333333333333329,13.0,3.0,-10.0,0.0,6.0,-7.0,0.0,10.724999999999978,13.0,12.0,11.0
466.0,6.333333333333329,13.0,3.0,-10.0,0.0,6.0,-7.0,0.0,11.0,13.579999999999956,12.0,11.0
467.0,6.333333333333329,13.0,3.0,-10.0,0.0,6.0,-7.0,0.0,11.0,14.0,12.354999999999972,11.0
468.0,6.333333333333329,13.0,3.0,-10.0,0.0,6.0,-7.0,0.0,11.419999999999979,14.0,12.919999999999979,11.0
469.0,6.333333333333329,13.0,3.96999999999993,-10.0,0.0,6.0,-7.0,0.0,11.984999999999966,14.0,13.0,11.0
470.0,6.333333333333329,13.0,4.0,-10.0,0.0,6.0,-6.900000000000045,0.0,12.0,14.0,13.0,11.0
471.0,6.333333333333329,13.0,4.0,-10.0,0.0,6.0,-6.0,0.22999999999993062,12.0,14.0,13.0,11.0
472.0,6.333333333333329,13.0,4.0,-10.0,0.0,6.359999999999941,-6.0,1.0,12.179999999999971,14.35999999999994,13.0,11.0
473.0,6.333333333333329,13.0,4.0,-10.0,0.0,7.0,-6.0,1.0,12.744999999999967,15.0,13.0,11.0
474.0,5.713333333333362,13.0,4.0,-10.0,0.0,7.0,-6.0,1.0,13.0,15.0,13.0,10.380000000000033
475.0,5.333333333333329,13.0,4.0,-10.0,0.0,7.0,-6.0,1.0,13.0,15.0,13.0,10.0
476.0,5.333333333333329,13.0,4.0,-10.0,-0.43999999999998457,7.0,-5.120000000000031,1.0,13.0,15.0,13.0,10.0
477.0,5.333333333333329,13.0,4.504999999999969,-10.0,-1.0,7.0,-5.0,1.0,13.0,15.0,13.0,10.0
478.0,5.333333333333329,13.0,5.0,-10.0,-1.0,7.0,-5.0,1.0,13.0,15.0,13.0,10.0
479.0,5.063333333333388,13.0,5.0,-10.0,-1.0,7.0,-5.0,1.0,13.0,15.0,13.0,9.86500000000003
480.0,4.333333333333329,13.0,5.0,-10.0,-1.0,7.0,-4.600000000000051,1.0,13.0,15.0,12.800000000000026,9.300000000000026
481.0,4.333333333333329,12.470000000000056,5.0,-9.735000000000028,-1.0,7.0,-4.0,1.0,13.0,15.0,12.235000000000028,9.0
482.0,4.333333333333329,12.0,5.0,-9.170000000000032,-1.0,7.0,-4.0,1.6599999999999344,13.0,15.0,12.0,9.0
483.0,4.333333333333329,12.0,5.0,-9.0,-1.0,7.0,-4.0,2.0,12.605000000000027,15.0,12.0,9.0
484.0,3.413333333333408,12.0,5.0,-9.0,-1.0,7.0,-4.0,2.0,12.04000000000004,15.0,12.0,8.08000000000008
485.0,3.3333333333333286,11.0,5.0,-9.0,-1.0,7.0,-4.0,2.0,12.0,15.0,12.0,8.0
486.0,3.3333333333333286,11.0,5.0,-9.0,-1.0899999999999852,7.0,-3.910000000000015,2.0,12.0,15.0,12.0,8.0
487.0,3.3333333333333286,11.0,5.0,-9.0,-1.6549999999999756,7.0,-3.3450000000000246,2.0,12.0,15.0,11.845000000000024,7.845000000000025
488.0,3.1133333333333506,11.0,5.0,-9.0,-2.0,7.0,-3.0,2.0,12.0,15.0,11.280000000000022,7.280000000000022
489.0,2.5483333333333515,10.430000000000046,5.0,-8.430000000000046,-2.0,7.0,-3.0,2.0,12.0,14.430000000000046,11.0,7.0
490.0,2.3333333333333286,10.0,5.0,-8.0,-2.0,7.0,-3.0,2.0,12.0,14.0,11.0,7.0
491.0,2.3333333333333286,10.0,5.0,-8.0,-2.0,7.0,-3.0,2.0,11.170000000000044,14.0,11.0,6.585000000000022
492.0,2.3333333333333286,10.0,5.0,-8.0,-2.0,7.0,-3.0,2.0,11.0,14.0,11.0,6.020000000000036
493.0,1.788333333333352,10.0,5.0,-8.0,-2.0,7.0,-2.9100000000000468,2.0,11.0,14.0,10.0,6.0
494.0,1.3333333333333286,9.890000000000036,5.0,-8.0,-2.0,6.890000000000036,-2.0,2.0,11.0,13.890000000000036,10.0,5.890000000000036
495.0,1.3333333333333286,9.325000000000031,5.0,-7.82500000000003,-2.0,6.32500000000003,-2.0,1.650000000000061,11.0,13.325000000000031,10.0,5.32500000000003
496.0,1.3333333333333286,9.0,5.0,-7.260000000000034,-2.4799999999999307,6.0,-2.0,1.0,10.520000000000069,13.0,9.760000000000035,5.0
497.0,1.3333333333333286,9.0,5.0,-7.0,-3.0,6.0,-2.0,1.0,10.0,13.0,9.195000000000018,5.0
498.0,1.3333333333333286,9.0,5.0,-7.0,-3.0,6.0,-2.0,1.0,10.0,13.0,9.0,5.0
499.0,1.3333333333333286,9.0,5.0,-7.0,-3.0,6.0,-2.0,1.0,10.0,12.130000000000033,9.0,4.130000000000034
500.0,1.3333333333333286,8.000000000000064,5.0,-7.0,-3.0,6.0,-1.0000000000000644,1.0,9.000000000000064,12.0,8.500000000000032,4.0
501.0,0.3333333333333286,8.0,5.0,-7.0,-3.0,6.0,-1.0,1.0,9.0,12.0,8.0,4.0
502.0,0.3333333333333286,8.0,5.0,-6.7400000000000615,-3.0,6.0,-1.0,1.0,8.870000000000031,11.740000000000062,8.0,3.7400000000000615
503.0,0.3333333333333286,7.805000000000026,5.0,-6.0,-3.0,6.0,-1.0,1.0,8.305000000000026,11.0,7.805000000000026,3.0
504.0,0.3333333333333286,7.2400000000000295,5.0,-6.0,-3.0,5.7400000000000295,-1.0,1.0,8.0,11.0,7.2400000000000295,3.0
505.0,0.3333333333333286,7.0,5.0,-6.0,-3.0,5.175000000000034,-1.0,1.0,8.0,10.350000000000067,7.0,3.0
506.0,0.3333333333333286,7.0,5.0,-6.0,-3.0,5.0,-1.0,1.0,7.610000000000028,10.0,7.0,3.0
507.0,-0.12166666666663062,7.0,5.0,-6.0,-3.0,5.0,-1.0,1.0,7.045000000000041,10.0,6.545000000000041,2.545000000000041
508.0,-0.6666666666666714,6.0,5.0,-5.0,-3.0,5.0,-1.0,0.48000000000002696,6.980000000000027,9.480000000000027,6.0,2.0
509.0,-0.6666666666666714,6.0,5.0,-5.0,-3.0,5.0,-1.0,0.0,6.415000000000016,9.0,6.0,2.0
510.0,-0.6666666666666714,6.0,5.0,-5.0,-3.0,5.0,-1.0,0.0,6.0,8.850000000000026,5.850000000000025,2.0
511.0,-1.0966666666666258,5.570000000000046,5.0,-5.0,-3.0,5.0,-1.0,0.0,5.785000000000023,8.285000000000023,5.285000000000023,2.0
512.0,-1.6666666666666714,5.0,5.0,-4.720000000000042,-3.0,4.720000000000042,-1.0,0.0,5.220000000000042,8.0,5.0,1.4400000000000848
513.0,-1.6666666666666714,5.0,5.0,-4.15500000000004,-3.0,4.15500000000004,-1.0,0.0,5.0,7.3100000000000795,5.0,1.0
514.0,-1.6666666666666714,5.0,5.0,-4.0,-3.0,4.0,-1.0,0.0,5.0,7.0,4.590000000000023,1.0
515.0,-1.6666666666666714,4.050000000000013,5.0,-4.0,-3.0,4.0,-1.0,-0.9499999999999872,5.0,7.0,4.025000000000007,1.0
516.0,-1.6666666666666714,4.0,5.0,-4.0,-3.0,4.0,-1.0,-1.0,4.460000000000054,6.0,4.0,1.0
517.0,-1.6666666666666714,4.0,4.895000000000037,-3.8950000000000373,-3.0,4.0,-1.0,-1.0,4.0,6.0,3.8950000000000373,1.0
518.0,-1.6666666666666714,4.0,4.3300000000000205,-3.3300000000000205,-3.0,4.0,-1.0,-1.0,3.8300000000000205,5.660000000000041,3.3300000000000205,1.0
519.0,-1.6666666666666714,4.0,4.0,-3.0,-3.0,3.530000000000008,-1.0,-1.0,3.2650000000000037,5.0,3.0,0.7650000000000039
520.0,-1.6666666666666714,3.700000000000026,4.0,-3.0,-3.0,3.0,-0.4000000000000514,-1.0,3.0,4.700000000000026,3.0,0.2000000000000257
521.0,-1.6666666666666714,3.135000000000035,4.0,-3.0,-3.0,3.0,0.0,-1.0,3.0,4.135000000000034,3.0,0.0
522.0,-1.6666666666666714,3.0,4.0,-3.0,-3.0,3.0,0.0,-1.0,2.140000000000036,4.0,2.570000000000018,0.0
523.0,-1.6666666666666714,3.0,4.0,-3.0,-3.0,3.0,0.0,-1.0,2.0,4.0,2.0050000000000012,0.0
524.0,-1.6666666666666714,3.0,4.0,-3.0,-3.0,3.0,0.0,-1.0,1.8800000000000976,3.0,2.0,0.0
525.0,-1.6666666666666714,3.0,4.0,-2.7500000000000644,-3.0,3.0,0.0,-1.0,1.0,3.0,2.0,0.0
526.0,-1.6666666666666714,3.0,4.0,-2.0,-3.0,2.8100000000000156,0.0,-1.0,1.0,2.8100000000000156,1.8100000000000154,0.0
527.0,-1.6666666666666714,3.0,3.7450000000000316,-2.0,-3.0,2.2450000000000316,0.0,-1.0,1.0,2.2450000000000316,1.2450000000000314,0.0
528.0,-1.6666666666666714,3.0,3.1800000000000463,-2.0,-3.0,2.0,0.0,-1.3199999999999537,0.36000000000009247,2.0,1.0,0.0
529.0,-1.6666666666666714,3.0,3.0,-2.0,-3.0,2.0,0.0,-1.8849999999999705,0.0,2.0,1.0,0.0
530.0,-1.6666666666666714,3.0,3.0,-2.0,-3.0,2.0,0.0,-2.0,0.0,2.0,1.0,0.0
531.0,-1.6666666666666714,2.484999999999998,3.0,-2.0,-3.0,2.0,0.0,-2.0,-0.015000000000001927,2.0,1.0,0.0
532.0,-1.6666666666666714,2.0,3.0,-2.0,-3.0,2.0,0.0,-2.0,-0.5799999999999563,2.0,1.0,0.0
533.0,-1.6666666666666714,2.0,3.0,-2.0,-3.0,2.0,0.0,-2.0,-1.0,1.855000000000027,1.0,0.0
534.0,-1.6666666666666714,2.0,3.0,-2.0,-3.0,1.7900000000000102,0.0,-2.0,-1.0,1.2900000000000102,1.0,0.0
535.0,-1.6666666666666714,2.0,2.725000000000029,-2.0,-3.0,1.225000000000029,0.0,-2.0,-1.0,1.0,1.0,0.0
536.0,-1.6666666666666714,2.0,2.160000000000041,-2.0,-3.0,1.0,0.0,-2.0,-1.6799999999999178,1.0,1.0,0.0
537.0,-1.6666666666666714,2.0,2.0,-1.5950000000000244,-3.0,1.0,0.0,-2.0,-2.0,1.0,1.0,0.0
538.0,-1.6666666666666714,2.0,2.0,-1.0300000000000078,-3.0,1.0,0.0,-2.0,-2.0,0.5300000000000077,1.0,0.0
539.0,-1.6666666666666714,1.0,2.0,-1.0,-3.0,1.0,0.0,-2.0,-2.0,0.0,1.0,0.0
540.0,-1.6666666666666714,1.0,2.0,-1.0,-3.0,1.0,0.0,-2.0,-2.0,0.0,1.0,0.0
541.0,-1.6666666666666714,1.0,2.0,-1.0,-3.0,0.8350000000000218,0.0,-2.0,-2.3299999999999566,0.0,1.0,0.0
542.0,-1.6666666666666714,1.0,2.0,-1.0,-3.0,0.2700000000000051,0.0,-2.0,-3.0,0.0,0.5400000000000102,0.0
543.0,-1.6666666666666714,1.0,2.0,-1.0,-3.0,0.0,0.0,-1.4100000000000525,-3.0,-0.5899999999999473,0.0,0.0
544.0,-1.6666666666666714,1.0,2.0,-1.0,-3.0,0.0,0.0,-1.0,-3.0,-1.0,0.0,0.0
545.0,-1.6666666666666714,1.0,2.0,-1.0,-3.0,0.0,0.0,-1.0,-3.0,-1.0,0.0,0.0
546.0,-1.6666666666666714,1.0,2.0,-1.0,-3.0,0.0,0.0,-1.0,-3.0,-1.0,0.0,0.0
547.0,-1.6666666666666714,1.0,2.0,-1.0,-2.0,0.0,0.0,-1.0,-3.0,-1.0,0.0,0.0
548.0,-1.6666666666666714,1.0,2.0,-1.0,-2.0,0.0,0.0,-1.0,-3.0,-1.0,0.0,0.0
549.0,-1.481666666666688,1.0,2.0,-1.0,-2.0,0.0,0.0,-1.0,-3.0,-1.0,0.0,0.0
550.0,-0.9166666666667035,1.0,1.7500000000000322,-1.0,-2.0,0.0,0.0,-1.0,-3.0,-1.2499999999999678,0.0,0.0
551.0,-0.6666666666666714,1.0,1.1850000000000476,-1.0,-2.0,0.0,0.0,-1.0,-3.0,-1.8149999999999524,0.0,0.0
552.0,-0.6666666666666714,1.0,1.0,-1.0,-2.0,0.0,0.0,-1.0,-3.0,-2.0,0.0,0.0
553.0,-0.6666666666666714,1.0,1.0,-1.0,-2.0,0.0,0.0,-1.0,-3.0,-2.0,0.0,0.0
554.0,-0.6666666666666714,1.0,1.0,-0.9899999999999988,-2.0,0.0,0.0,-1.0,-3.0,-2.0,0.0,0.020000000000002568
555.0,-0.6666666666666714,1.0,1.0,-0.42500000000004495,-2.0,0.0,0.0,-1.0,-3.0,-2.0,0.0,1.0
556.0,-0.6666666666666714,1.0,1.0,0.0,-2.0,0.0,0.0,-1.0,-3.0,-2.0,0.0,1.0
557.0,-0.6666666666666714,0.7950000000000116,1.0,0.0,-2.0,0.0,0.0,-1.0,-3.0,-2.0,0.0,1.0
558.0,-0.6666666666666714,0.23000000000002957,1.0,0.0,-2.0,-0.5399999999999409,0.0,-0.7300000000000295,-3.0,-2.0,0.0,1.0
559.0,-0.6666666666666714,0.0,0.3300000000000848,0.0,-2.0,-1.0,0.0,-0.1650000000000424,-3.0,-2.0,0.0,1.0
560.0,-0.6666666666666714,0.0,0.0,0.0,-2.0,-1.0,0.0,0.0,-3.0,-2.0,0.0,1.0
561.0,-0.6666666666666714,0.0,0.0,0.0,-1.070000000000018,-1.0,0.0,0.0,-3.0,-2.0,0.0,1.0
562.0,-0.6666666666666714,0.0,0.0,0.0,-1.0,-1.0,0.0,0.0,-3.0,-2.0,0.0,1.0
563.0,-0.6666666666666714,0.0,0.0,0.0,-1.0,-1.0,0.0,0.0,-3.1899999999999205,-2.0,0.0,1.0
564.0,-0.6666666666666714,0.0,0.0,0.0,-1.0,-1.0,0.0,0.0,-4.0,-2.3199999999999537,0.0,1.0
565.0,-0.6666666666666714,0.0,0.0,0.0,-1.0,-1.0,0.0,0.0,-4.0,-3.0,0.0,1.0
566.0,-0.6666666666666714,0.0,0.0,0.0,-1.0,-1.0,0.0,0.0,-4.0,-3.0,0.0,0.420000000000054
567.0,-0.6666666666666714,0.0,-0.7099999999999255,0.0,-1.0,-1.7099999999999254,0.0,0.0,-4.0,-3.0,0.0,0.0
568.0,-0.6666666666666714,0.0,-1.0,0.0,-1.0,-2.0,0.0,0.0,-4.0,-3.0,0.0,0.0
569.0,-0.6666666666666714,0.0,-1.0,0.0,-1.0,-2.0,0.0,0.0,-4.0,-3.0,0.0,0.0
570.0,-0.6666666666666714,-0.5499999999999486,-1.0,0.0,-1.0,-2.0,0.0,0.0,-3.4500000000000512,-3.0,0.0,0.0
571.0,-0.6666666666666714,-1.0,-1.0,0.0,-1.0,-2.0,0.0,0.0,-3.0,-3.0,0.0,0.0
572.0,-0.6666666666666714,-1.0,-1.0,0.0,-1.0,-2.0,0.0,0.0,-3.0,-3.0,0.0,0.0
573.0,-0.6666666666666714,-1.0,-1.0,0.0,-1.0,-2.0,0.0,0.0,-3.0,-3.0,0.0,0.0
574.0,-0.6666666666666714,-1.0,-1.0,0.0,-0.6900000000000488,-2.0,0.0,0.0,-3.0,-3.0,0.0,0.0
575.0,-0.6666666666666714,-1.0,-1.0,0.0,-0.12500000000003209,-2.0,0.7499999999999358,0.0,-3.0,-3.0,0.0,0.0
576.0,-0.6666666666666714,-1.0,-1.0,0.0,0.0,-2.0,1.0,0.0,-3.0,-3.0,0.0,0.0
577.0,-0.6566666666666702,-1.0,-1.5050000000000006,0.0,0.0,-2.0,1.0,0.0,-3.0,-3.0,0.0,0.0
578.0,0.3333333333333286,-1.0,-2.0,0.0,0.0,-2.0699999999999537,1.0,0.0,-3.0,-3.0,0.0,0.0
579.0,0.3333333333333286,-1.0,-2.0,0.0,0.0,-2.6349999999999705,1.0,0.0,-3.0,-3.0,0.0,0.0
580.0,0.3333333333333286,-1.0,-2.0,0.0,0.0,-3.0,1.0,0.0,-3.0,-3.0,0.0,0.0
581.0,0.3333333333333286,-1.0,-2.0,0.0,0.0,-3.0,1.0,0.0,-3.0,-3.0,0.0,0.0
582.0,0.3333333333333286,-1.0,-2.0,0.0,0.0,-3.0,0.34000000000008734,0.32999999999995633,-3.0,-3.0,0.0,0.0
583.0,0.3333333333333286,-1.0,-2.0,0.0,0.0,-3.0,0.0,0.894999999999973,-3.0,-3.0,0.0,0.0
584.0,0.3333333333333286,-1.0,-2.0,0.0,0.0,-3.0,0.0,1.0,-3.0,-3.0,0.0,0.9199999999999795
585.0,0.3333333333333286,-1.0,-2.0,0.0,0.0,-3.0,0.0,1.0,-3.0,-3.0,0.0,1.0
586.0,0.3333333333333286,-1.0,-2.0,0.0,0.08999999999995889,-3.0,0.0,1.0,-2.910000000000041,-3.0,0.0,1.0
587.0,0.3333333333333286,-1.0,-2.309999999999951,0.0,0.6549999999999756,-3.0,0.0,1.0,-2.3450000000000246,-3.0,0.0,1.0
588.0,0.3333333333333286,-1.0,-3.0,0.0,1.0,-3.0,0.0,1.0,-2.0,-3.0,0.0,1.0
589.0,0.3333333333333286,-1.0,-3.0,0.0,1.0,-3.0,0.0,1.0,-2.0,-3.0,0.0,1.0
590.0,0.3333333333333286,-1.0,-3.0,0.0,1.0,-3.0,0.6999999999999229,1.0,-2.0,-3.0,0.0,1.0
591.0,0.3333333333333286,-1.0,-3.0,0.0,1.0,-3.0,1.0,1.0,-2.0,-3.0,0.0,1.0
592.0,0.3333333333333286,-1.0,-3.0,0.0,1.0,-3.0,1.0,1.0,-2.0,-3.0,0.0,1.0
593.0,0.3333333333333286,-1.0,-3.0,0.0,1.0,-3.0,1.0,1.0,-2.0,-3.0,0.0,1.0
594.0,0.3333333333333286,-1.0,-3.0,0.0,1.0,-3.0,1.0,1.0,-2.0,-3.0,0.0,1.0
595.0,0.3333333333333286,-1.0,-3.0,0.0,1.0,-3.0,1.0,1.0,-2.0,-3.0,0.0,1.0
596.0,0.3333333333333286,-1.0,-3.0,0.0,1.0,-3.0,1.0,1.0,-2.2399999999999665,-3.0,0.0,1.0
597.0,0.3333333333333286,-1.0,-3.0,0.0,1.0,-3.0,1.0,1.0,-2.80499999999995,-3.0,0.0,1.0
598.0,0.3333333333333286,-1.0,-3.0,0.0,1.0,-3.0,1.0,1.0,-3.0,-3.0,0.0,1.0
599.0,0.3333333333333286,-1.0,-3.0,0.0,1.0,-3.0,1.0,1.0,-3.0,-3.0,0.0,1.0
600.0,0.3333333333333286,-1.0,-3.0,0.0,1.0,-3.0,1.0,1.0,-3.0,-3.0,0.0,1.0
601.0,0.3333333333333286,-1.0,-3.0,0.0,1.0,-3.129999999999905,1.0,1.0,-3.0,-3.0,0.0,1.0
602.0,0.3333333333333286,-1.0,-3.0,0.0,1.0,-4.0,1.0,1.0,-3.0,-3.0,0.0,1.0
603.0,0.3333333333333286,-1.0,-3.0,0.0,1.0,-4.0,1.0,1.0,-3.0,-3.0,0.0,1.0
604.0,0.3333333333333286,-1.0,-3.0,0.0,1.0,-4.0,1.0,1.0,-3.0,-3.0,0.0,1.0
605.0,0.3333333333333286,-1.0,-3.0,0.0,1.0,-4.0,1.0,1.0,-3.0,-3.0,0.0,1.0
606.0,0.3333333333333286,-1.0,-3.0,0.0,1.0,-4.0,1.0,1.0,-3.0,-3.0,0.0,1.0
607.0,0.3333333333333286,-1.0,-3.0,0.0,1.0,-4.0,1.0,1.0,-3.0,-3.0,0.0,0.09000000000002306
608.0,0.3333333333333286,-1.0,-3.0,0.0,1.0,-4.0,1.0,1.0,-3.0,-3.0,0.0,0.0
609.0,0.3333333333333286,-1.0,-3.0,0.0,1.0,-4.0,1.0,1.0,-3.0,-3.0,0.0,0.0
610.0,0.3333333333333286,-1.0,-3.0,0.0,1.0,-4.0,0.7000000000000514,1.0,-3.0,-3.0,0.0,0.0
611.0,0.11833333333333759,-1.0,-3.0,0.0,1.0,-4.0,0.0,1.0,-3.0,-3.0,0.0,0.0
612.0,-0.4466666666666431,-1.0,-3.0,0.0,1.0,-4.0,0.0,1.0,-3.0,-3.0,0.0,0.0
613.0,-0.6666666666666714,-1.0,-3.0,0.0,1.0,-4.0,0.0,1.0,-3.0,-3.0,0.0,0.0
614.0,-0.6666666666666714,-1.0,-3.0,0.0,1.0,-4.0,0.0,1.0,-3.0,-3.0,0.0,0.0
615.0,-0.6666666666666714,-1.9499999999999873,-3.0,0.0,1.0,-4.0,0.0,1.0,-3.0,-3.0,0.0,0.0
616.0,-0.6666666666666714,-2.0,-3.0,0.0,1.0,-4.0,0.0,1.0,-3.0,-3.0,0.0,0.0
617.0,-0.6666666666666714,-2.0,-3.0,0.0,1.0,-4.0,0.0,1.0,-3.0,-3.0,0.0,0.0
618.0,-0.6666666666666714,-2.0,-3.0,0.0,1.0,-4.0,0.0,1.0,-3.0,-3.0,0.0,0.0
619.0,-0.6666666666666714,-2.0,-3.0,0.0,1.0,-4.0,0.0,1.0,-3.0,-3.0,0.0,0.0
620.0,-0.6666666666666714,-2.0,-3.0,0.0,1.0,-4.0,0.0,1.0,-3.0,-3.0,0.0,0.0
621.0,-0.6666666666666714,-2.0,-3.0,0.0,1.0,-4.0,0.0,1.0,-3.0,-3.0,0.0,0.0
622.0,-0.6666666666666714,-2.0,-3.0,0.0,1.0,-4.0,0.0,1.0,-3.0,-3.0,0.0,0.0
623.0,-0.6666666666666714,-2.0,-3.0,0.0,1.0,-4.0,0.0,1.0,-2.5050000000000012,-3.0,0.0,0.0
624.0,-0.6666666666666714,-2.0,-3.0,0.0,1.0,-4.0,0.0,1.0,-2.0,-3.0,0.0,0.0
625.0,-0.6666666666666714,-2.0,-3.0,0.0,1.0,-4.0,0.0,1.0,-2.0,-3.0,0.0,0.0
626.0,-0.6666666666666714,-2.0,-3.0,0.0,1.0,-4.0,0.0,1.0,-2.0,-3.0,0.0,0.0
627.0,-0.6666666666666714,-2.0,-3.0,0.0,1.0,-4.0,0.0,1.0,-2.0,-3.0,0.0,0.0
628.0,-0.6666666666666714,-2.0,-3.0,0.0,1.0,-4.0,0.0,1.0,-2.0,-3.0,0.0,0.0
629.0,-0.6666666666666714,-2.0,-3.769999999999941,0.0,1.0,-4.0,0.0,1.0,-2.0,-3.0,0.0,0.0
630.0,-0.6666666666666714,-2.0,-4.0,0.0,1.0,-4.0,0.0,1.0,-2.0,-3.0,0.0,0.0
631.0,-0.6666666666666714,-2.0,-4.0,0.0,1.0,-4.0,0.0,1.0,-2.0,-3.0,0.0,0.0
632.0,-0.5066666666667587,-2.0,-4.0,0.0,1.0,-4.0,0.0,1.0,-2.0,-3.0,0.0,0.0
633.0,0.3333333333333286,-2.0,-4.0,0.0,1.0,-4.0,0.0,1.0,-2.0,-3.0,0.0,0.0
634.0,0.3333333333333286,-2.0,-4.0,0.0,1.0,-4.0,0.0,1.0,-2.0,-3.0,0.0,0.0
635.0,0.3333333333333286,-2.0,-4.0,0.0,1.0,-4.0,0.0,1.0,-2.0,-3.0,0.0,0.0
636.0,0.3333333333333286,-2.0,-4.0,0.0,1.0,-4.0,0.0,1.0,-2.0,-3.0,0.0,0.0
637.0,0.3333333333333286,-2.0,-4.0,0.0,1.0,-4.0,0.0,1.0,-2.0,-3.0,0.0,0.0
638.0,0.3333333333333286,-2.0,-4.0,0.0,1.0,-4.0,0.0,1.0,-2.0,-3.0,0.0,0.0
639.0,0.3333333333333286,-1.0,-4.0,0.0,1.0,-4.0,0.0,1.0,-2.0,-3.0,0.0,0.0
640.0,0.3333333333333286,-1.0,-4.0,0.0,1.0,-4.0,0.0,1.0,-2.0,-2.9000000000000385,0.0,0.0
641.0,0.3333333333333286,-1.0,-4.0,0.0,1.0,-4.0,0.0,1.0,-2.0,-2.3350000000000217,0.0,0.0
642.0,0.3333333333333286,-1.0,-4.0,0.0,1.0,-4.0,0.0,1.0,-2.0,-2.0,0.0,0.0
643.0,0.3333333333333286,-1.0,-4.0,0.0,1.0,-4.0,0.0,1.0,-2.0,-2.0,0.0,0.0
644.0,0.3333333333333286,-1.0,-4.0,0.0,1.0,-4.0,0.0,1.0,-2.0,-2.0,0.0,0.0
645.0,0.3333333333333286,-1.0,-4.0,0.0,1.0,-4.0,0.0,1.0,-2.0,-2.0,0.0,0.0
646.0,0.8233333333332631,-1.0,-4.0,0.0,1.0,-4.0,0.0,1.0,-2.0,-2.0,0.0,0.0
647.0,1.3333333333333286,-1.0,-4.0,0.0,1.0,-4.0,0.0549999999999499,1.0,-2.0,-2.0,0.0,0.0
648.0,1.3333333333333286,-1.0,-4.0,0.0,1.0,-4.0,0.6199999999999666,1.0,-2.0,-2.0,0.0,0.0
649.0,1.3333333333333286,-1.0,-4.0,0.0,1.0,-4.0,1.0,1.0,-2.0,-2.0,0.0,0.0
650.0,1.3333333333333286,-1.0,-4.0,0.0,1.2499999999999678,-4.0,1.0,1.0,-2.0,-2.0,0.0,0.0
651.0,1.3333333333333286,-1.0,-4.0,0.0,1.8149999999999524,-4.0,1.0,1.0,-2.0,-2.0,0.0,0.0
652.0,1.3333333333333286,-1.0,-4.0,0.0,2.0,-4.0,1.0,1.0,-2.0,-2.0,0.0,0.0
653.0,1.3333333333333286,-1.0,-4.0,0.0,2.0,-4.0,1.0,1.0,-2.0,-2.0,0.0,0.0
654.0,1.3333333333333286,-1.0,-4.0,0.0,2.0,-4.0,1.0,1.0,-2.0,-2.0,0.0,0.0
655.0,1.3333333333333286,-1.0,-4.0,0.0,2.0,-4.0,1.0,1.0,-2.0,-2.0,0.0,0.0
656.0,1.3333333333333286,-1.0,-4.0,0.0,2.0,-4.0,1.0,1.0,-2.0,-2.0,0.0,0.0
657.0,1.3333333333333286,-1.0,-4.0,0.0,2.0,-4.0,1.0,1.0,-2.0,-2.0,0.0,0.0
658.0,1.3333333333333286,-1.0,-4.0,0.0,2.0,-4.0,1.0,1.0,-2.0,-2.0,0.0,0.0
659.0,1.3333333333333286,-1.0,-4.0,0.0,2.0,-4.0,1.0,1.0,-2.0,-2.0,0.0,0.0
660.0,1.3333333333333286,-1.0,-4.0,0.0,2.0,-4.0,1.0,1.0,-2.0,-2.0,0.0,0.0
661.0,1.3333333333333286,-1.0,-4.0,0.0,2.0,-4.0,1.0,1.0,-2.0,-2.0,0.0,0.0
662.0,1.363333333333272,-1.0,-4.0,0.0,2.0,-4.0,1.0,1.0,-2.0,-2.0,0.0,0.0
663.0,1.9283333333332888,-1.0,-4.0,0.0,2.0,-4.0,1.0,1.0,-2.0,-2.0,0.0,0.0
664.0,2.3333333333333286,-1.0,-4.0,0.0,2.0,-4.0,1.0,1.0,-2.0,-2.0,0.0,0.0
665.0,1.8833333333333993,-1.0,-4.0,0.0,2.0,-4.0,1.0,1.0,-2.0,-2.0,0.0,0.0
666.0,1.3333333333333286,-1.0,-4.0,0.0,2.0,-4.0,1.0,1.0,-2.0,-2.0,0.0,0.0
667.0,1.3333333333333286,-1.0,-4.0,0.0,2.0,-4.0,1.0,1.0,-2.0,-2.0,0.0,0.0
668.0,1.3333333333333286,-1.0,-4.0,0.0,2.0,-4.0,1.0,1.0,-2.0,-2.0,0.0,0.0
669.0,1.3333333333333286,-1.0,-4.0,0.0,2.0,-4.0,1.0,1.0,-2.0,-2.0,0.0,0.0
670.0,1.3333333333333286,-1.0,-4.0,0.0,2.0,-4.0,1.0,1.0,-2.0,-2.0,0.0,0.0
671.0,1.2183333333333632,-1.0,-4.0,0.0,2.0,-4.0,1.0,1.0,-2.0,-2.0,0.0,0.0
672.0,0.6533333333333466,-1.0,-4.0,0.0,2.0,-4.0,1.0,1.0,-2.0,-2.0,0.0,0.0
673.0,0.3333333333333286,-1.0,-4.0,0.0,2.0,-4.0,1.0,1.0,-2.0,-2.0,0.0,0.0
674.0,0.3333333333333286,-1.0,-4.0,0.0,2.0,-4.0,1.0,1.0,-2.0,-2.0,0.0,0.0
675.0,0.3333333333333286,-1.0,-4.0,0.0,2.0,-4.0,1.0,1.0,-2.0,-2.0,0.0,0.0
676.0,0.3333333333333286,-1.8799999999999693,-4.0,0.0,2.0,-4.0,1.0,1.0,-2.0,-2.0,0.0,0.0
677.0,0.3333333333333286,-2.0,-4.0,0.0,2.0,-4.0,1.0,1.0,-2.0,-2.0,0.0,0.0
678.0,0.3333333333333286,-2.0,-4.0,0.0,2.0,-4.0,1.0,1.0,-2.0,-2.0,0.0,0.0
679.0,0.3333333333333286,-2.0,-4.0,0.0,2.0,-4.0,1.0,1.0,-2.0,-2.0,0.0,0.0
680.0,0.3333333333333286,-2.0,-4.0,0.0,2.0,-4.0,1.0,1.0,-2.0,-2.0,0.0,0.0
681.0,0.3333333333333286,-1.4700000000001208,-4.0,0.0,2.0,-4.0,1.0,1.0,-2.0,-2.0,0.0,0.0
682.0,0.3333333333333286,-1.0,-4.0,0.0,2.0,-4.0,1.0,1.0,-2.0,-2.0,0.0,0.0
683.0,0.3333333333333286,-1.0,-4.0,0.0,2.0,-4.0,1.0,1.0,-2.0,-2.0,0.0,0.0
684.0,0.3333333333333286,-1.0,-4.0,0.0,2.0,-4.0,1.0,1.0,-2.0,-2.0,0.0,0.0
685.0,0.3583333333332708,-1.0,-4.0,0.0,2.0,-4.0,0.9750000000000578,1.0,-1.0,-2.0,0.0,0.0
686.0,0.9233333333332875,-1.0,-4.0,0.0,2.0,-4.0,0.4100000000000411,1.0,-1.0,-2.0,0.0,0.0
687.0,1.3333333333333286,-1.0,-4.0,0.0,2.0,-4.0,0.0,1.0,-1.0,-2.0,0.0,0.0
688.0,1.3333333333333286,-1.0,-4.0,0.0,2.0,-4.0,0.0,1.0,-1.0,-2.0,0.0,0.0
689.0,1.3333333333333286,-1.0,-4.0,0.0,2.0,-4.0,0.0,1.0,-1.0,-2.0,0.0,0.0
690.0,1.3333333333333286,-1.0,-4.0,0.0,2.0,-4.0,0.0,1.0,-1.0,-2.0,0.0,0.0
691.0,1.3333333333333286,-1.0,-4.0,0.0,2.0,-4.0,0.0,1.0,-1.0,-2.0,0.0,0.0
692.0,1.3333333333333286,-1.0,-4.0,0.0,2.0,-4.0,0.0,1.0,-1.0,-2.0,0.0,0.0
693.0,1.3333333333333286,-1.0,-4.0,0.0,2.0,-4.0,0.0,1.0,-1.0,-2.0,0.0,0.0
694.0,1.3333333333333286,-1.0,-4.0,0.0,2.0,-4.0,0.0,1.0,-1.0,-2.0,0.0,0.0
695.0,0.37878787878797693,-0.7666666666666907,-3.5800000000000454,0.0,1.5800000000000451,-3.7666666666666906,0.0,-1.1839999999997577,-0.5800000000000451,-2.0,0.0,0.2333333333333093
696.0,-4.6448484848480405,1.2666666666664463,-1.3188571428573446,0.0,-0.3039999999998477,-2.4533333333334535,0.4799999999999332,-12.564799999998977,2.2639999999997142,-1.5200000000000669,0.4799999999999332,1.7866666666665134
697.0,-13.084791666665863,5.541666666666252,2.2464285714282517,0.3049999999999499,-3.02499999999975,-0.2800000000002003,1.30499999999995,-31.547777777775963,7.092499999999575,-0.39000000000010016,1.0,4.52499999999975
698.0,-19.512916666666374,8.153333333333245,4.979999999999866,0.8699999999999666,-5.726666666666507,1.6099999999998997,1.8699999999999666,-46.29888888888819,8.343000000000039,0.7399999999999333,1.7399999999999332,6.6099999999999
699.0,-18.305238095238195,7.021000000000054,5.934999999999984,1.0,-6.913333333333311,2.0,2.0,-42.91000000000023,5.416000000000107,1.0,2.0,5.840000000000049
700.0,-13.393939393939991,5.000000000000231,5.000000000000129,1.0,-6.000000000000129,2.0,1.0000000000001283,-32.50000000000122,2.5000000000003215,1.0,2.0,5.000000000000085
701.0,-7.8883333333337395,2.7400000000001903,4.116666666666822,0.4350000000000475,-4.515000000000115,0.870000000000095,1.0,-20.70000000000095,-0.32499999999976237,0.0,1.0,3.2616666666668417
702.0,-3.3086666666668756,0.6100000000000925,2.493333333333378,0.0,-3.3700000000000307,0.0,0.7400000000000617,-9.720000000000539,-2.8899999999999073,-0.12999999999996917,1.0,1.3633333333334088
703.0,0.06933333333313985,-1.0849999999998825,1.6100000000000785,0.0,-2.6100000000000785,-0.38999999999992163,0.0,-0.9957692307696773,-4.3899999999999215,-0.6949999999999608,1.0,0.3050000000000392
704.0,2.729333333333046,-2.2599999999999385,0.3066666666668335,0.0,-1.7400000000000617,-1.2599999999999383,0.0,4.691428571428048,-5.0,-1.0,1.0,0.0
705.0,5.024999999999827,-3.14999999999991,-1.09166666666656,0.0,-0.8500000000000899,-2.14999999999991,-0.6499999999999101,8.849999999999703,-5.0,-1.0,0.3500000000000899,-0.32499999999995505
706.0,6.576666666666595,-3.8899999999999717,-2.2799999999999434,0.0,0.2799999999999435,-2.8899999999999717,-1.0,11.949999999999859,-5.0,-1.0,0.0,-0.8899999999999717
707.0,7.288333333333317,-4.4549999999999885,-3.409999999999977,0.0,0.9549999999999885,-3.909999999999977,-1.0,13.864999999999965,-5.0,-1.909999999999977,0.0,-1.0
708.0,7.333333333333329,-5.0,-4.019999999999941,0.0,2.0,-4.019999999999941,-1.0,14.039999999999882,-4.980000000000059,-2.0,0.0,-1.0
709.0,7.333333333333329,-5.0,-4.584999999999957,0.0,2.169999999999915,-4.584999999999957,-1.0,14.830000000000085,-4.415000000000043,-2.0,-0.16999999999991522,-1.0
710.0,7.333333333333329,-4.850000000000025,-5.299999999999948,0.0,3.0,-5.0,-1.0,13.850000000000026,-4.0,-2.0,-1.0,-1.0
711.0,7.333333333333329,-4.285000000000037,-6.0,0.0,3.0,-5.0,-1.0,13.285000000000037,-3.570000000000073,-2.0,-1.0,-1.0
712.0,6.773333333333442,-4.0,-6.0,0.0,3.2799999999999434,-5.279999999999943,-1.0,12.720000000000056,-3.0,-2.0,-1.0,-1.0
713.0,6.333333333333329,-4.0,-6.0,0.0,3.8449999999999602,-5.84499999999996,-1.0,11.81000000000008,-3.0,-2.0,-1.0,-1.0
714.0,5.5133333333333745,-4.0,-6.819999999999954,0.0,4.0,-6.0,-1.0,10.680000000000046,-2.590000000000023,-2.0,-1.0,-1.0
715.0,4.8583333333333965,-4.0,-7.0,0.0,4.0,-6.0,-1.0,9.39166666666682,-2.0250000000000674,-2.0,-1.0,-1.0
716.0,4.333333333333329,-4.0,-7.0,0.0,4.0,-6.0,-1.0,8.0,-2.0,-2.0,-1.0,0.0
717.0,4.123333333333403,-4.0,-7.0,0.0,4.0,-6.0,-1.0,7.790000000000075,-2.0,-2.0,-1.0,0.0
718.0,3.3333333333333286,-3.660000000000041,-7.0,0.0,4.0,-6.0,-1.0,6.660000000000041,-2.0,-2.0,-1.0,0.0
719.0,2.863333333333397,-3.0,-7.0,0.0,4.0,-6.0,-1.0,5.530000000000068,-2.0,-2.0,-1.0,0.0
720.0,2.3333333333333286,-3.0,-7.0,0.0,4.0,-6.0,-1.0,5.0,-1.7000000000000512,-2.0,-1.0,0.0
721.0,2.3333333333333286,-3.0,-7.0,0.0,4.0,-6.0,-1.0,4.27000000000007,-1.1350000000000346,-2.0,-1.0,0.0
722.0,1.4733333333333647,-3.0,-7.0,0.0,4.0,-6.0,-1.0,4.0,-1.0,-2.0,-1.0,0.0
723.0,1.3333333333333286,-3.0,-7.0,0.0,4.0,-6.0,-1.0,3.01000000000013,-1.0,-2.0,-1.0,0.0
724.0,1.3333333333333286,-3.0,-7.0,0.0,4.0,-6.0,-0.9400000000000488,3.0,-1.0,-2.0,-1.0,0.0
725.0,1.3333333333333286,-3.0,-7.0,0.0,3.7500000000000644,-6.0,-0.3750000000000321,2.7500000000000644,-0.8750000000000321,-2.0,-1.0,0.0
726.0,1.3333333333333286,-3.0,-6.81000000000004,0.0,3.0,-6.0,0.0,2.0,-0.3100000000000398,-2.0,-1.0,0.0
727.0,1.3333333333333286,-3.0,-6.245000000000063,0.0,3.0,-6.0,0.0,2.0,0.0,-2.0,-1.0,0.0
728.0,0.6933333333334211,-3.0,-6.0,0.0,3.0,-6.0,0.0,2.0,0.0,-2.0,-1.0,0.0
729.0,0.3333333333333286,-3.0,-6.0,0.0,3.0,-6.0,0.0,2.0,0.0,-2.0,-1.0,0.0
730.0,0.3333333333333286,-3.0,-6.0,0.0,3.0,-6.0,0.0,2.0,0.0,-2.0,-1.0,0.0
731.0,0.3333333333333286,-3.0,-6.0,0.0,3.0,-6.0,0.0,2.0,0.02999999999987924,-1.9700000000001208,-1.0,0.0
732.0,0.3333333333333286,-3.0,-6.0,0.0,3.0,-6.0,0.0,2.0,1.0,-1.0,-1.0,0.0
733.0,0.3333333333333286,-3.0,-6.0,0.0,3.0,-6.0,0.0,2.0,1.0,-1.0,-1.0,0.0
734.0,0.3333333333333286,-3.0,-6.0,0.0,3.0,-6.0,0.4199999999999255,2.0,1.0,-1.0,-1.0,0.0
735.0,0.3333333333333286,-3.0,-6.0,0.0,3.0,-6.0,1.0,2.0,1.0,-1.0,-1.0,0.0
736.0,0.3333333333333286,-3.0,-6.0,0.0,3.0,-6.0,1.0,2.0,1.0,-1.0,-0.3200000000000822,0.0
737.0,0.3333333333333286,-3.0,-6.0,0.0,3.0,-6.0,1.0,2.0,1.0,-1.0,0.0,0.0
738.0,0.3333333333333286,-3.0,-6.0,0.0,3.0,-6.0,1.0,2.0,1.9399999999998638,-1.0,0.0,0.0
739.0,0.3333333333333286,-3.0,-6.0,0.0,3.0,-6.0,1.0,2.0,2.0,-1.0,0.0,0.0
740.0,0.3333333333333286,-3.0,-6.0,0.0,3.0,-6.0,1.0,2.0,2.0,-1.0,0.0,0.0
741.0,0.3333333333333286,-3.0,-6.0,0.0,3.0,-6.0,1.0,2.0,2.0,-1.0,0.0,0.0
742.0,0.3333333333333286,-3.0,-6.0,0.0,3.0,-6.0,1.0,2.0,2.0,-1.0,0.0,0.0
743.0,0.3333333333333286,-3.0,-6.0,0.0,3.0,-6.0,1.0,2.0,2.0,-1.0,0.0,0.0
744.0,0.3333333333333286,-3.0,-6.0,0.0,2.640000000000036,-6.0,1.0,2.0,2.0,-1.0,-0.359999999999964,0.0
745.0,0.3333333333333286,-3.8499999999999615,-6.0,0.0,2.0750000000000193,-6.0,1.4249999999999807,2.0,2.0,-1.0,-0.9249999999999807,0.0
746.0,-0.6466666666665404,-4.0,-6.0,0.0,2.0,-6.0,1.9899999999999345,2.0,2.0,-1.0,-1.0,0.0
747.0,-0.6666666666666714,-4.05499999999995,-6.0,0.0,2.0,-6.0,2.0,2.0,2.0,-1.0,-1.0,0.0
748.0,-0.9066666666666046,-4.619999999999966,-6.0,0.0,2.0,-6.0,2.239999999999933,2.0,2.0,-1.0,-1.0,0.0
749.0,-1.6666666666666714,-5.18499999999996,-6.0,0.36999999999991906,2.0,-6.0,3.0,2.0,1.8150000000000404,-1.0,-1.0,-0.36999999999991906
750.0,-1.6666666666666714,-5.749999999999936,-6.0,1.0,2.0,-6.0,3.4999999999998717,2.0,1.2500000000000642,-1.4999999999998717,-1.0,-1.0
751.0,-2.2966666666665763,-6.0,-6.0,1.0,2.0,-6.0,4.0,2.0,1.0,-2.0,-1.0,-1.0
752.0,-2.6666666666666714,-6.7599999999999385,-6.0,1.0,2.0,-6.379999999999969,4.0,2.0,1.0,-2.0,-1.7599999999999385,-1.7599999999999385
753.0,-2.6666666666666714,-7.0,-6.0,1.4449999999999859,2.0,-6.944999999999986,4.889999999999972,2.0,1.0,-2.0,-2.0,-2.0
754.0,-2.686666666666548,-8.0,-6.0,2.0,1.0,-7.0,5.5099999999999385,2.0,1.0,-2.5099999999999385,-2.0199999999998766,-3.0
755.0,-3.6666666666666714,-8.14999999999991,-6.0,2.0,1.0,-7.0,6.0,2.0,1.0,-3.0,-3.0,-3.074999999999955
756.0,-3.806666666666643,-9.139999999999972,-6.0,2.2799999999999434,1.0,-7.0,6.279999999999943,2.0,1.1399999999999717,-3.0,-3.0,-3.6399999999999717
757.0,-4.371666666666633,-9.704999999999963,-6.0,3.0,1.0,-7.204999999999962,7.409999999999924,2.0,1.704999999999962,-3.409999999999924,-3.204999999999962,-4.409999999999924
758.0,-5.206666666666553,-10.539999999999882,-6.0,3.0,1.0,-7.769999999999941,8.0,2.0,2.0,-4.0,-3.769999999999941,-5.0
759.0,-5.666666666666671,-11.0,-6.0,3.669999999999915,1.0,-8.0,8.669999999999915,2.0,2.669999999999915,-4.0,-4.0,-5.6699999999999156
760.0,-6.46666666666662,-11.399999999999974,-6.0,4.0,0.20000000000005136,-8.0,9.79999999999995,2.7999999999999488,3.0,-4.399999999999975,-4.799999999999948,-6.399999999999975
761.0,-7.131666666666603,-11.96499999999993,-6.0,4.929999999999863,0.0,-8.0,10.46499999999993,3.0,3.9299999999998625,-4.9649999999999315,-5.0,-7.429999999999863
762.0,-7.726666666666558,-13.0,-6.0,5.0,0.0,-8.029999999999944,11.059999999999887,3.0299999999999434,4.029999999999943,-5.029999999999943,-6.0,-8.029999999999944
763.0,-8.856666666666591,-13.09499999999996,-5.90500000000004,5.1899999999999205,-0.18999999999992034,-8.59499999999996,12.18999999999992,3.5949999999999602,4.59499999999996,-5.59499999999996,-6.09499999999996,-8.68999999999992
764.0,-9.986666666666626,-13.659999999999977,-5.340000000000023,6.159999999999977,-1.0,-9.0,13.159999999999977,4.0,5.0,-6.0,-6.659999999999977,-9.659999999999977
765.0,-11.116666666666601,-14.224999999999964,-5.0,6.724999999999965,-1.2249999999999646,-9.0,13.94999999999993,4.449999999999929,5.449999999999929,-6.449999999999929,-7.449999999999929,-10.44999999999993
766.0,-12.246666666666563,-14.789999999999946,-5.0,7.0,-1.789999999999946,-9.0,14.789999999999946,5.0,6.0,-7.0,-8.0,-11.579999999999892
767.0,-13.139999999999958,-15.0,-5.0,7.709999999999925,-2.0,-9.0,15.709999999999926,5.0,6.709999999999925,-7.0,-8.709999999999926,-12.709999999999926
768.0,-14.453333333333283,-15.839999999999959,-4.160000000000041,8.419999999999979,-2.839999999999959,-9.0,16.839999999999957,5.839999999999959,7.4199999999999795,-7.839999999999959,-9.419999999999979,-13.839999999999959
769.0,-15.959999999999823,-16.0,-4.0,8.984999999999934,-3.0,-9.0,17.969999999999867,6.0,7.984999999999934,-8.0,-10.469999999999867,-15.454999999999801
770.0,-16.799999999999866,-17.0,-3.900000000000103,10.0,-3.0499999999999488,-9.0,19.0999999999999,7.0,9.0,-9.0,-11.099999999999897,-17.0666666666666
771.0,-18.306666666666576,-17.114999999999966,-3.0,10.229999999999931,-3.614999999999965,-9.0,20.22999999999993,7.114999999999966,9.114999999999965,-9.229999999999931,-12.229999999999931,-18.08833333333321
772.0,-19.813333333333233,-17.67999999999996,-2.6400000000000823,11.179999999999959,-4.359999999999918,-9.0,21.47999999999989,7.679999999999959,9.679999999999959,-10.179999999999959,-13.359999999999918,-20.03999999999988
773.0,-21.401666666666475,-18.244999999999933,-2.0,11.744999999999935,-5.244999999999934,-9.0,22.904999999999845,8.244999999999935,10.0,-10.744999999999935,-14.489999999999869,-21.734999999999804
774.0,-23.096666666666525,-18.809999999999953,-1.3800000000000976,12.619999999999902,-5.809999999999951,-9.0,23.809999999999953,8.80999999999995,10.619999999999902,-11.619999999999902,-15.619999999999902,-23.429999999999854
775.0,-24.166666666666632,-19.0,-1.0,13.374999999999968,-6.749999999999936,-9.0,24.749999999999936,9.0,11.0,-12.0,-16.49999999999996,-24.999999999999915
776.0,-25.79999999999995,-19.87999999999997,-0.12000000000003086,13.939999999999985,-7.439999999999984,-9.0,26.17333333333329,9.879999999999969,11.0,-12.879999999999969,-17.83999999999996,-26.506666666666625
777.0,-27.346666666666508,-20.50499999999994,0.009999999999874103,15.009999999999874,-8.504999999999937,-9.0,27.50499999999994,10.504999999999937,11.0,-13.504999999999937,-19.009999999999874,-28.514999999999812
778.0,-28.75999999999994,-21.0,1.0,16.0,-9.139999999999908,-9.0,28.139999999999908,11.0,11.0,-14.069999999999954,-20.093333333333273,-30.09333333333327
779.0,-29.693333333333257,-21.26999999999994,1.269999999999941,16.26999999999994,-10.13499999999997,-9.0,29.26999999999994,11.269999999999941,11.0,-14.63499999999997,-21.026666666666593,-31.116666666666568
780.0,-31.066666666666595,-22.0,2.0,17.399999999999924,-10.899999999999922,-9.0,30.19999999999996,12.0,10.600000000000078,-15.399999999999922,-22.399999999999924,-32.86666666666657
781.0,-32.19666666666655,-22.52999999999988,2.0,18.0,-11.76499999999994,-9.0,30.76499999999994,12.529999999999879,10.0,-16.0,-23.52999999999988,-34.37333333333317
782.0,-32.99666666666663,-23.0,2.0,18.65999999999991,-12.329999999999956,-9.0,31.65999999999991,13.0,9.670000000000044,-16.65999999999991,-24.43999999999994,-35.65999999999991
783.0,-33.95666666666662,-23.394999999999975,2.789999999999946,19.394999999999975,-13.289999999999946,-9.0,32.394999999999975,13.0,8.710000000000054,-17.394999999999975,-25.719999999999928,-36.78999999999995
784.0,-35.08666666666653,-23.95999999999993,3.0,19.95999999999993,-13.95999999999993,-9.0,32.95999999999993,13.0,8.04000000000007,-17.95999999999993,-26.91999999999986,-38.22666666666648
785.0,-35.716666666666555,-24.0,4.0,21.0,-15.049999999999885,-8.475000000000058,34.0,14.0,6.950000000000116,-19.0,-28.049999999999883,-39.52499999999994
786.0,-36.66666666666667,-24.0,4.179999999999918,21.179999999999918,-16.0,-8.0,34.0,14.0,5.820000000000082,-19.179999999999918,-29.089999999999957,-40.179999999999914
787.0,-36.976666666666624,-24.0,5.0,22.154999999999976,-16.309999999999953,-8.0,34.0,13.69000000000005,4.845000000000025,-20.154999999999976,-29.654999999999976,-41.30999999999995
788.0,-37.886666666666635,-24.0,5.4399999999999284,22.719999999999963,-17.219999999999963,-8.0,34.0,13.0,4.0600000000000716,-20.719999999999963,-30.439999999999927,-42.43999999999993
789.0,-38.45166666666662,-24.0,6.0,23.56999999999989,-17.784999999999943,-8.0,34.0,13.0,3.2150000000000554,-21.0,-31.56999999999989,-43.0
790.0,-38.66666666666667,-24.0,6.699999999999923,24.0,-18.349999999999962,-8.0,34.0,13.0,2.300000000000077,-21.699999999999925,-32.0,-43.34999999999996
791.0,-39.49666666666663,-24.0,7.414999999999978,24.0,-19.329999999999956,-7.585000000000022,34.0,12.585000000000022,1.1700000000000437,-22.0,-32.829999999999956,-43.91499999999998
792.0,-39.66666666666667,-24.0,7.979999999999933,24.959999999999866,-19.979999999999933,-7.020000000000067,34.0,12.020000000000067,-0.2799999999998173,-22.479999999999933,-33.0,-44.47999999999993
793.0,-40.211666666666616,-23.0,8.544999999999947,25.089999999999893,-21.0,-7.0,34.0,11.910000000000105,-1.5449999999999473,-23.0,-34.0,-45.0
794.0,-40.66666666666667,-23.0,9.109999999999964,26.0,-21.109999999999964,-7.0,33.78000000000007,11.0,-2.2199999999999283,-23.0,-34.0,-45.0
795.0,-40.84166666666663,-23.0,9.674999999999958,26.0,-21.674999999999958,-7.0,33.0,11.0,-3.3499999999999166,-23.349999999999916,-34.0,-45.0
796.0,-41.4066666666666,-23.0,10.239999999999933,26.479999999999865,-22.479999999999865,-6.520000000000134,33.0,11.0,-4.0,-24.0,-34.47999999999987,-45.0
797.0,-41.66666666666667,-23.0,10.80499999999995,27.0,-23.0,-6.0,32.3900000000001,11.0,-4.0,-24.0,-35.0,-45.0
798.0,-41.66666666666667,-23.0,11.0,27.0,-23.369999999999965,-6.0,32.0,11.0,-3.630000000000033,-24.0,-35.0,-45.0
799.0,-41.66666666666667,-23.0,11.869999999999967,27.0,-23.934999999999985,-6.0,31.565000000000015,10.130000000000033,-2.6300000000000336,-24.0,-35.0,-45.0
800.0,-41.66666666666667,-22.000000000000128,12.0,27.999999999999872,-24.499999999999936,-6.0,31.000000000000064,10.0,-1.3333333333334785,-23.000000000000128,-34.500000000000064,-44.500000000000064
801.0,-41.66666666666667,-21.93500000000005,12.129999999999905,28.0,-25.0,-5.0,29.93500000000005,10.0,0.12999999999990494,-23.0,-34.0,-44.0
802.0,-41.66666666666667,-21.240000000000062,13.0,28.0,-25.12999999999997,-5.0,29.240000000000062,10.0,1.5199999999998766,-22.740000000000062,-33.87000000000003,-43.74000000000006
803.0,-41.27666666666675,-20.110000000000078,13.389999999999922,28.0,-25.69499999999996,-4.6100000000000785,28.04500000000009,10.0,3.8579999999998287,-21.80500000000004,-33.30500000000004,-42.61000000000008
804.0,-40.66666666666667,-18.980000000000125,14.259999999999938,28.0,-26.0,-4.0,26.64000000000016,10.0,6.3959999999997175,-20.980000000000125,-32.74000000000006,-41.480000000000125
805.0,-40.01666666666676,-17.85000000000009,14.824999999999955,27.35000000000009,-26.0,-4.0,25.35000000000009,10.0,8.79999999999982,-20.175000000000043,-32.17500000000005,-40.35000000000009
806.0,-39.66666666666667,-16.590000000000064,15.0,27.0,-26.779999999999944,-3.2200000000000566,24.220000000000056,10.389999999999972,11.449999999999859,-19.220000000000056,-31.220000000000056,-39.61000000000003
807.0,-38.453333333333525,-14.816666666666904,15.90999999999986,27.0,-27.0,-2.54500000000007,22.63500000000021,10.95499999999993,14.72999999999958,-17.786666666666857,-30.54500000000007,-38.438333333333496
808.0,-37.12666666666679,-13.460000000000118,16.039999999999882,26.48000000000006,-27.0,-2.0,20.640000000000082,11.0,17.59199999999973,-16.460000000000118,-29.28000000000016,-36.62000000000013
809.0,-35.96833333333344,-12.301666666666765,17.0,26.0,-27.0,-1.830000000000085,19.74500000000013,11.084999999999958,20.207999999999796,-15.301666666666765,-27.915000000000042,-35.30166666666677
810.0,-34.50000000000009,-10.833333333333417,17.0,25.700000000000053,-27.0,-1.0,17.9000000000001,11.649999999999974,22.889999999999883,-13.833333333333417,-27.15000000000006,-33.78333333333343
811.0,-32.760000000000105,-9.165000000000088,17.0,24.570000000000075,-27.0,-0.5700000000000732,15.640000000000146,12.429999999999927,25.359999999999854,-12.093333333333431,-25.616666666666788,-31.640000000000146
812.0,-30.973333333333546,-7.8466666666667955,17.0,23.720000000000056,-26.44000000000011,0.0,13.380000000000226,13.279999999999944,27.619999999999774,-10.400000000000189,-24.013333333333463,-29.380000000000226
813.0,-28.90166666666682,-6.413333333333438,17.0,23.15500000000004,-26.0,0.0,11.465000000000119,13.84499999999996,29.53499999999988,-8.86166666666676,-22.81000000000008,-27.235000000000145
814.0,-26.802666666666756,-5.590000000000023,17.0,22.180000000000046,-26.0,0.0,10.180000000000046,14.409999999999977,30.819999999999954,-7.543333333333384,-21.543333333333383,-25.573333333333398
815.0,-24.281666666666982,-4.391666666666819,17.0,21.525000000000066,-25.050000000000136,0.0,8.575000000000202,14.974999999999932,31.949999999999864,-5.591666666666914,-19.750000000000227,-23.591666666666914
816.0,-22.020000000000202,-2.920000000000108,17.0,20.226666666666805,-24.460000000000054,1.0,6.3800000000001615,15.539999999999946,33.0,-3.380000000000162,-18.226666666666805,-21.316000000000248
817.0,-19.941333333333482,-1.8600000000000487,16.790000000000074,18.89500000000004,-23.790000000000074,1.0,4.6850000000001115,16.10499999999996,33.0,-1.8600000000000487,-16.720000000000102,-18.808000000000142
818.0,-17.582666666666892,-0.8800000000001099,16.0,18.160000000000085,-22.660000000000085,1.0,2.8766666666668237,16.66999999999996,33.0,-0.7100000000001524,-15.213333333333448,-16.608000000000178
819.0,-14.832666666666972,0.46999999999986386,15.765000000000068,16.951666666666824,-21.686666666666756,1.4699999999998639,1.1183333333334948,17.0,32.76500000000007,1.2049999999997958,-13.706666666666846,-14.1660000000003
820.0,-12.466666666666876,1.0,15.20000000000005,15.533333333333468,-20.53333333333347,2.0,0.20000000000005136,17.0,32.20000000000005,2.2999999999999488,-12.20000000000014,-11.800000000000205
821.0,-10.060666666666823,1.3649999999999654,14.635000000000035,14.513333333333376,-19.635000000000034,2.0,-1.0949999999998958,17.0,31.635000000000034,3.2299999999999307,-10.693333333333424,-9.783333333333445
822.0,-7.488666666666754,1.929999999999982,14.070000000000018,13.186666666666714,-18.640000000000036,2.0,-3.076666666666597,17.0,30.640000000000036,4.503333333333296,-8.900000000000063,-7.756666666666732
823.0,-5.186666666666931,2.98999999999987,13.01000000000013,12.01000000000013,-17.345000000000148,2.0,-4.653333333333165,17.0,29.51000000000013,6.316666666666446,-7.346666666666835,-5.52000000000026
824.0,-3.193333333333456,3.559999999999951,12.0,10.586666666666735,-15.880000000000098,2.0,-6.119999999999902,17.0,28.17333333333346,7.559999999999951,-5.880000000000098,-3.2800000000001797
825.0,-1.8750000000000786,4.124999999999968,11.750000000000064,9.666666666666753,-14.750000000000064,2.0,-7.249999999999936,17.0,26.875000000000032,8.333333333333247,-4.666666666666753,-1.3750000000000786
826.0,-0.3033333333334812,4.68999999999996,10.62000000000008,8.223333333333429,-13.49333333333344,2.0,-8.37999999999992,17.0,26.12000000000008,9.776666666666571,-3.223333333333429,-0.12000000000007965
827.0,1.7683333333330955,5.0,9.490000000000126,6.990000000000126,-12.071666666666816,2.0,-9.509999999999874,17.0,24.905000000000143,10.754999999999937,-1.9050000000001446,1.0949999999998554
828.0,3.413333333333219,5.639999999999907,8.360000000000092,6.180000000000046,-11.180000000000046,2.0,-10.639999999999908,17.0,23.48000000000012,11.639999999999908,-0.48000000000012155,2.5199999999998783
829.0,4.6033333333332696,6.0,8.0,4.973333333333416,-9.973333333333416,2.0,-11.0,16.61500000000003,22.61500000000003,12.38499999999997,0.3849999999999705,3.769999999999941
830.0,5.733333333333187,6.0,7.100000000000142,3.616666666666832,-8.616666666666832,1.5500000000000707,-11.44999999999993,16.05000000000007,21.60000000000014,13.399999999999858,0.9499999999999293,5.199999999999807
831.0,6.848333333333268,6.514999999999939,6.0,2.4850000000000603,-7.485000000000061,1.0,-12.0,16.0,20.48500000000006,14.029999999999879,2.0299999999998795,6.514999999999939
832.0,7.493333333333242,7.0,5.840000000000087,1.8400000000000873,-6.840000000000087,1.0,-12.079999999999956,15.840000000000087,19.84000000000009,15.0,3.0799999999999566,7.0799999999999566
833.0,8.623333333333274,7.0,4.710000000000054,0.855000000000027,-5.710000000000054,1.0,-12.644999999999973,15.0,18.710000000000054,15.144999999999973,3.644999999999973,7.789999999999946
834.0,9.543333333333292,7.0,3.7900000000000373,0.29000000000003723,-4.580000000000075,1.0,-13.0,14.580000000000075,17.580000000000073,15.709999999999964,4.419999999999925,8.709999999999964
835.0,10.10833333333327,7.0,3.225000000000058,-0.2749999999999422,-3.4500000000001156,1.0,-13.0,14.0,16.450000000000117,16.0,5.549999999999884,9.274999999999942
836.0,10.333333333333329,7.0,2.320000000000082,-0.8399999999999589,-3.0,1.0,-12.320000000000082,13.320000000000082,15.320000000000082,16.0,6.0,9.839999999999959
837.0,11.14333333333328,7.404999999999975,2.0,-1.4049999999999756,-3.0,1.0,-12.0,13.0,14.595000000000024,16.809999999999953,6.809999999999951,10.0
838.0,11.333333333333329,7.5,2.0,-1.9699999999999318,-2.0600000000001364,1.0,-12.0,12.530000000000069,13.560000000000136,17.0,7.469999999999932,10.0
839.0,11.333333333333329,7.0,1.4650000000000551,-3.0,-1.0,0.46500000000005526,-11.93000000000011,11.93000000000011,12.465000000000055,17.0,8.0,10.534999999999945
840.0,11.533333333333252,7.0,1.0,-3.0999999999999615,-0.8000000000000771,0.0,-11.0,11.0,11.800000000000077,17.0,8.099999999999962,11.0
841.0,12.333333333333329,7.0,0.6700000000000861,-3.664999999999957,0.16499999999995696,0.0,-11.0,10.835000000000043,10.670000000000087,17.0,8.664999999999957,11.0
842.0,12.333333333333329,7.0,0.0,-4.459999999999861,0.7299999999999306,0.0,-10.54000000000014,10.270000000000069,9.770000000000069,17.0,9.0,11.0
843.0,12.333333333333329,7.0,-0.5899999999998947,-5.0,1.5899999999998946,0.0,-10.0,9.410000000000105,9.205000000000053,16.70500000000005,9.294999999999947,11.0
844.0,12.333333333333329,7.0,-1.0,-5.0,2.0,0.0,-9.280000000000072,9.0,8.280000000000072,16.140000000000036,9.859999999999964,11.0
845.0,12.333333333333329,7.0,-1.0,-5.8499999999999615,2.4249999999999807,0.0,-9.0,8.575000000000019,8.0,16.0,10.0,11.0
846.0,12.333333333333329,7.0,-1.979999999999869,-6.0,2.9899999999999345,0.0,-9.0,8.010000000000066,7.5100000000000655,16.0,10.0,11.0
847.0,12.333333333333329,7.0,-2.0,-6.1099999999999,3.1099999999999,0.0,-8.0,7.0,7.0,15.8900000000001,10.0,11.0
848.0,12.333333333333329,6.760000000000066,-2.239999999999933,-7.0,4.0,0.0,-8.0,6.760000000000066,6.760000000000066,15.0,10.0,10.760000000000067
849.0,12.333333333333329,6.0,-3.0,-7.0,4.0,0.0,-8.0,5.81500000000004,6.0,15.0,10.0,10.0
850.0,11.833333333333456,6.0,-3.0,-7.0,4.499999999999871,0.0,-7.750000000000064,5.250000000000064,5.500000000000129,14.750000000000064,10.0,10.0
851.0,11.333333333333329,6.0,-3.0,-7.0,5.0,0.0,-7.185000000000048,4.370000000000095,5.0,14.185000000000047,10.0,10.0
852.0,11.333333333333329,6.0,-3.3799999999999693,-7.379999999999969,5.0,0.0,-7.0,4.0,5.0,14.0,10.0,10.0
853.0,11.333333333333329,6.0,-3.944999999999929,-7.944999999999928,5.0,0.0,-7.0,3.555000000000071,5.0,14.0,10.0,10.0
854.0,11.313333333333452,6.0,-4.0,-8.0,5.0099999999999385,0.0,-7.0,2.9900000000000615,4.4900000000000615,13.0,10.0,9.980000000000123
855.0,10.333333333333329,6.0,-4.0,-8.0,5.574999999999955,0.0,-7.0,2.425000000000045,4.0,13.0,10.0,9.0
856.0,10.333333333333329,6.0,-4.0,-8.0,6.0,0.0,-7.0,2.0,3.7200000000000566,12.720000000000056,10.0,9.0
857.0,10.333333333333329,6.0,-4.0,-8.0,6.0,0.0,-6.795000000000038,2.0,3.0,12.0,10.0,9.0
858.0,10.333333333333329,6.0,-4.0,-8.0,6.0,0.0,-6.230000000000059,2.0,2.730000000000059,11.730000000000059,10.0,9.0
859.0,10.333333333333329,6.0,-4.0,-8.0,6.0,0.0,-6.0,2.0,2.1650000000000422,11.165000000000042,10.0,9.0
860.0,10.333333333333329,6.0,-4.0,-8.0,6.0,0.0,-6.0,1.2000000000000512,2.0,11.0,9.600000000000026,9.0
861.0,10.333333333333329,6.0,-4.0,-8.0,6.0,0.0,-6.0,1.0,2.0,11.0,9.03500000000007,9.0
862.0,10.333333333333329,6.0,-4.0,-8.0,6.0,0.0,-6.0,0.47000000000005654,1.4700000000000566,10.0,9.0,9.0
863.0,10.143333333333409,6.0,-4.0,-8.0,6.0,0.0,-6.0,0.0,1.0,10.0,9.0,9.0
864.0,9.333333333333329,6.0,-4.0,-8.319999999999913,6.0,0.0,-6.0,0.0,1.0,9.680000000000087,9.0,9.0
865.0,9.333333333333329,6.0,-4.0,-9.0,6.0,0.0,-6.0,-0.22499999999992934,1.0,9.0,9.0,9.0
866.0,9.333333333333329,6.0,-4.0,-9.0,6.0,0.0,-6.0,-0.7899999999999461,1.0,9.0,9.0,9.0
867.0,9.333333333333329,6.0,-4.0,-9.0,6.0,0.0,-6.0,-1.0,1.0,9.0,9.0,9.0
868.0,9.333333333333329,6.0,-4.0,-8.580000000000021,6.0,0.0,-6.0,-1.0,1.0,8.160000000000041,9.0,8.160000000000041
869.0,8.848333333333395,6.0,-4.0,-8.015000000000066,6.0,0.0,-6.0,-1.0,1.0,8.0,8.030000000000133,8.0
870.0,8.333333333333329,6.0,-4.0,-8.0,6.0,0.0,-6.0,-2.0,1.0,8.0,8.0,8.0
871.0,8.333333333333329,6.0,-4.0,-8.0,6.0,0.0,-6.0,-2.0,0.8850000000000346,7.885000000000034,8.0,8.0
872.0,8.333333333333329,6.0,-4.0,-8.0,6.0,0.0,-6.0,-2.0,0.32000000000004114,7.320000000000041,8.0,8.0
873.0,8.333333333333329,6.0,-4.0,-8.0,6.0,0.0,-6.0,-2.0,0.0,7.0,8.0,8.0
874.0,8.333333333333329,6.0,-4.0,-8.0,6.0,0.0,-6.0,-2.0,0.0,7.0,8.0,8.0
875.0,8.333333333333329,6.0,-4.0,-8.0,6.0,0.0,-6.0,-2.0,0.0,7.0,8.0,8.0
876.0,7.8933333333334,6.0,-4.0,-8.0,6.0,0.0,-6.0,-2.0,0.0,6.5600000000000716,8.0,8.0
877.0,7.333333333333329,6.0,-4.0,-8.0,5.990000000000126,0.0,-6.0,-2.009999999999874,0.0,6.0,8.0,8.0
878.0,7.333333333333329,6.0,-4.0,-8.0,5.0,0.0,-6.0,-3.0,0.0,6.0,8.0,8.0
879.0,7.333333333333329,6.0,-4.0,-8.0,5.0,0.0,-6.0,-3.0,0.0,6.0,7.730000000000059,8.0
880.0,7.333333333333329,6.0,-4.0,-8.0,5.0,0.0,-6.0,-3.0,0.0,6.0,7.0,8.0
881.0,7.333333333333329,6.0,-4.0,-8.0,5.0,0.0,-6.0,-3.0,0.0,5.735000000000061,7.0,8.0
882.0,7.333333333333329,6.0,-4.0,-8.0,5.0,0.0,-6.0,-3.0,0.0,5.1700000000000434,7.0,8.0
883.0,8.123333333333274,6.0,-4.0,-8.0,5.0,0.0,-6.0,-3.0,0.0,5.0,7.0,8.0
884.0,8.333333333333329,6.0,-3.5400000000000693,-8.0,5.0,0.0,-6.0,-3.0,0.0,5.0,7.0,8.0
885.0,8.333333333333329,6.0,-3.0,-8.0,5.0,0.0,-6.0,-3.0,0.0,5.0,7.0,8.0
886.0,8.333333333333329,6.0,-3.0,-8.0,5.0,0.0,-6.0,-3.0,0.0,5.0,7.0,8.0
887.0,8.333333333333329,6.0,-3.0,-8.0,5.0,0.0,-6.0,-3.0,0.0,5.0,7.0,8.0
888.0,8.333333333333329,6.0,-3.0,-8.0,5.0,0.0,-6.0,-3.0,0.0,5.0,7.0,8.0
889.0,8.333333333333329,6.0,-3.0,-8.0,5.0,0.0,-6.0,-3.0,0.0,5.0,7.0,8.0
890.0,8.333333333333329,6.0,-3.0,-8.0,5.0,0.0,-6.0,-3.0,0.0,5.0,7.0,8.0
891.0,8.333333333333329,6.0,-3.0,-8.0,5.0,0.0,-6.0,-3.0,0.0,5.0,7.0,8.0
892.0,8.333333333333329,6.0,-3.0,-8.0,5.0,0.0,-6.0,-3.0,0.0,5.0,7.0,8.0
893.0,8.333333333333329,6.0,-3.0,-8.0,5.0,0.0,-6.0,-3.0,0.0,4.0,7.0,8.0
894.0,8.333333333333329,6.0,-3.0,-8.0,5.0,0.0,-6.0,-3.0,0.0,4.0,7.0,8.0
895.0,8.333333333333329,6.0,-3.0,-8.0,5.0,0.0,-6.0,-3.0,0.0,4.0,7.0,8.0
896.0,8.333333333333329,6.239999999999934,-3.0,-8.0,5.0,0.0,-6.0,-3.0,0.0,4.0,7.0,8.0
897.0,8.333333333333329,6.80499999999995,-3.0,-8.0,5.0,0.0,-6.0,-3.0,0.0,4.0,7.0,8.0
898.0,8.333333333333329,7.0,-3.0,-8.0,5.0,0.0,-6.0,-3.0,0.0,4.0,7.0,8.0
899.0,8.333333333333329,7.0,-3.0,-8.0,5.0,0.0,-6.0,-3.0,0.0,4.0,7.0,8.0
900.0,8.333333333333329,7.0,-3.0,-8.0,5.0,0.0,-6.0,-3.0,0.0,4.0,7.0,8.0
901.0,8.333333333333329,7.0,-3.0,-8.0,5.0,0.0,-6.0,-3.0,0.0,4.0,7.0,9.0
902.0,8.333333333333329,7.0,-3.0,-8.0,5.0,0.0,-6.0,-3.0,0.0,4.0,7.0,9.0
903.0,8.333333333333329,7.0,-3.0,-8.0,5.0,0.0,-6.0,-3.0,0.0,4.0,7.0,9.0
904.0,8.333333333333329,7.0,-3.0,-8.0,5.0,0.0,-6.0,-3.0,0.0,4.0,7.0,9.0
905.0,8.333333333333329,7.0,-3.0,-8.0,5.0,0.0,-6.0,-3.0,0.0,4.0,7.0,9.0
906.0,8.333333333333329,7.0,-3.0,-8.0,5.0,0.0,-6.0,-3.0,0.0,4.0,7.0,9.0
907.0,8.333333333333329,7.0,-3.0,-8.0,5.0,0.0,-6.0,-3.0,0.0,4.0,7.0,9.0
908.0,8.333333333333329,7.0,-3.0,-8.0,5.0,0.0,-6.0,-3.0,0.0,4.0,7.0,9.0
909.0,8.333333333333329,6.8300000000000844,-3.0,-8.0,5.0,0.0,-6.0,-3.0,0.0,4.0,7.0,9.0
910.0,8.033333333333418,6.0,-3.0,-8.0,5.0,0.0,-6.0,-3.0,0.0,4.0,7.0,9.0
911.0,7.333333333333329,6.214999999999927,-3.0,-8.0,5.0,0.0,-6.0,-3.0,0.0,4.0,7.0,9.0
912.0,7.333333333333329,6.779999999999943,-3.0,-8.0,5.0,0.0,-6.0,-3.0,0.0,4.0,7.0,9.0
913.0,7.333333333333329,7.0,-3.0,-8.0,5.0,0.0,-6.0,-3.0,0.0,4.0,7.0,9.0
914.0,7.333333333333329,7.0,-3.0,-8.0,5.0,0.0,-6.0,-3.0,0.0,4.0,7.0,9.0
915.0,7.333333333333329,6.525000000000068,-3.0,-8.0,5.0,0.0,-6.0,-3.0,0.0,4.0,7.0,9.0
916.0,7.3733333333332745,6.0,-3.0,-8.0,5.0,0.0,-6.0,-3.0,0.0,4.0,7.0,9.0
917.0,7.938333333333292,6.0,-3.0,-8.0,5.0,0.0,-6.0,-3.0,0.0,4.0,7.0,9.0
918.0,8.333333333333329,6.0,-3.0,-8.0,5.0,0.0,-6.0,-3.0,0.0,4.0,7.0,9.0
919.0,8.333333333333329,6.469999999999864,-3.0,-8.0,5.0,0.0,-6.469999999999864,-3.0,0.0,4.0,7.0,9.0
920.0,8.333333333333329,7.0,-3.0,-8.0,5.0,0.0,-7.0,-3.0,0.0,4.0,7.0,9.0
921.0,8.333333333333329,7.0,-3.0,-8.0,5.0,0.0,-7.0,-3.0,0.0,4.0,7.0,9.0
922.0,8.333333333333329,7.0,-3.0,-8.0,5.0,0.0,-7.0,-3.0,0.0,4.0,7.0,9.0
923.0,8.333333333333329,7.0,-3.0,-8.0,5.0,0.0,-7.0,-3.0,0.0,4.0,7.0,9.0
924.0,8.333333333333329,7.0,-3.0,-8.0,5.0,0.0,-7.0,-3.0,0.0,4.0,7.0,9.0
925.0,8.333333333333329,7.0,-3.0,-8.0,5.0,0.0,-7.0,-3.0,0.0,4.0,7.0,9.0
926.0,8.333333333333329,7.0,-3.0,-8.0,5.0,0.0,-7.0,-3.0,0.0,4.0,7.0,9.0
927.0,8.333333333333329,7.0,-3.0,-8.0,5.0,0.0,-7.0,-3.0,0.0,4.0,7.0,9.0
928.0,8.333333333333329,7.0,-3.0,-8.0,5.0,0.0,-7.0,-3.0,0.0,4.0,7.0,9.0
929.0,8.333333333333329,7.0,-3.0,-8.0,5.0,0.0,-7.0,-3.0,0.0,4.0,7.0,9.0
930.0,8.333333333333329,7.0,-3.0,-8.0,5.0,0.0,-7.0,-3.0,0.0,4.0,7.0,9.0
931.0,8.333333333333329,7.0,-3.0,-8.0,5.0,0.0,-7.0,-3.0,0.0,4.0,7.0,9.0
932.0,8.333333333333329,7.0,-3.0,-8.0,5.0,0.0,-7.0,-3.0,0.0,4.0,7.0,9.0
933.0,8.333333333333329,7.0,-3.0,-8.0,5.0,0.0,-7.0,-3.0,0.0,4.0,7.0,9.0
934.0,8.333333333333329,7.0,-3.0,-8.0,5.0,0.0,-7.0,-3.0,0.0,4.0,7.0,9.0
935.0,8.333333333333329,7.0,-3.0,-8.0,5.0,0.0,-7.0,-3.0,0.0,4.0,7.0,9.0
936.0,8.333333333333329,7.339999999999959,-3.0,-8.0,5.0,0.0,-7.0,-3.0,0.0,4.0,7.0,9.0
937.0,8.333333333333329,7.904999999999975,-2.190000000000049,-8.0,5.0,0.0,-7.0,-3.0,0.0,4.0,7.0,9.0
938.0,8.333333333333329,8.0,-2.0,-8.0,5.0,0.0,-7.0,-3.0,0.4699999999999319,4.0,7.0,9.0
939.0,8.333333333333329,8.0,-2.0,-8.06999999999989,5.0,0.0,-7.0,-3.0,1.0,4.0,7.0,9.0
940.0,8.533333333333252,8.0,-2.0,-9.0,5.0,0.0,-7.0,-3.0,1.0,4.0,7.0,9.0
941.0,9.333333333333329,8.0,-2.0,-9.0,5.0,0.0,-7.0,-3.0,1.0,4.0,7.0,9.0
942.0,9.333333333333329,8.0,-2.0,-9.0,5.0,0.0,-7.0,-3.0,1.0,4.0,7.0,9.0
943.0,9.333333333333329,8.0,-2.0,-9.0,5.0,0.0,-7.0,-3.0,1.0,4.589999999999895,7.0,9.0
944.0,9.333333333333329,8.0,-2.0,-9.0,5.0,0.0,-7.0,-3.0,1.0,5.0,7.0,9.0
945.0,9.333333333333329,8.0,-2.0,-9.0,5.0,0.0,-7.0,-3.0,1.0,5.0,7.0,9.0
946.0,9.333333333333329,8.0,-2.0,-9.0,5.0,0.0,-7.0,-3.0,1.0,5.0,7.0,9.0
947.0,9.333333333333329,8.0,-2.0,-9.0,5.0,0.0549999999999499,-7.0,-3.0,1.0,5.0,7.0,9.1099999999999
948.0,9.333333333333329,8.0,-2.0,-9.0,5.0,0.6199999999999666,-7.0,-3.0,1.0,5.0,7.0,10.0
949.0,9.333333333333329,8.0,-2.0,-9.0,5.0,1.0,-7.0,-3.0,1.0,5.0,7.0,10.0
950.0,9.333333333333329,8.0,-2.0,-9.0,5.0,1.0,-7.0,-3.0,1.0,5.0,7.0,10.0
951.0,9.333333333333329,8.0,-2.0,-9.0,5.0,1.0,-7.0,-3.0,1.0,5.0,7.0,10.0
952.0,9.333333333333329,8.0,-2.0,-9.0,5.0,1.0,-7.0,-3.0,1.0,5.0,7.0,10.0
953.0,9.333333333333329,8.0,-2.0,-9.0,5.0,1.0,-7.0,-3.0,1.0,5.0,7.0,10.0
954.0,9.333333333333329,8.0,-2.0,-9.0,5.0,1.0,-7.0099999999999385,-3.0,1.0,5.0,7.019999999999877,10.0
955.0,9.333333333333329,8.0,-2.0,-9.0,5.0,1.0,-7.574999999999955,-3.0,1.0,5.0,8.0,10.0
956.0,9.333333333333329,8.0,-2.0,-9.0,5.0,1.0,-8.0,-3.0,1.0,5.0,8.0,10.0
957.0,9.333333333333329,8.0,-2.0,-9.0,5.0,1.0,-8.0,-3.0,1.0,5.0,8.0,10.0
958.0,9.333333333333329,8.0,-2.0,-9.0,5.0,1.0,-8.0,-3.0,1.0,5.0,8.0,10.0
959.0,9.333333333333329,8.0,-2.0,-9.0,5.0,1.0,-8.0,-3.0,1.0,5.0,8.0,10.0
960.0,9.333333333333329,8.0,-2.0,-9.0,5.0,1.0,-8.0,-3.0,1.0,5.0,8.0,10.0
961.0,9.333333333333329,8.0,-2.0,-9.0,5.0,1.0,-8.0,-3.0,1.0,5.0,8.0,10.0
962.0,9.333333333333329,8.029999999999944,-2.0,-9.0,5.0,1.0,-8.0,-3.0,1.0,6.0,8.0,10.0
963.0,9.333333333333329,8.59499999999996,-2.0,-9.0,5.0,1.0,-8.0,-3.0,1.1899999999999205,6.0,8.0,10.0
964.0,9.333333333333329,9.0,-2.0,-9.0,5.0,1.0,-8.0,-3.0,2.0,6.0,8.0,10.0
965.0,9.333333333333329,9.0,-2.0,-9.0,5.0,1.0,-8.0,-3.0,2.0,6.0,8.0,10.0
966.0,9.333333333333329,9.0,-2.0,-9.0,5.0,1.0,-8.0,-3.0,2.0,6.0,8.0,10.0
967.0,9.333333333333329,9.0,-2.0,-9.0,5.0,1.0,-8.0,-3.0,2.0,6.0,8.0,10.0
968.0,9.333333333333329,9.0,-2.0,-9.0,5.0,1.0,-8.0,-3.0,2.0,6.0,8.0,10.0
969.0,9.333333333333329,9.0,-2.0,-9.0,5.0,1.0,-8.0,-3.0,2.0,6.0,8.0,10.0
970.0,9.333333333333329,9.0,-2.0,-9.099999999999897,5.0,1.0,-8.0,-3.0,2.099999999999897,6.0,8.0,10.0
971.0,9.333333333333329,9.114999999999965,-2.0,-10.0,5.0,1.0,-8.0,-3.0,3.0,6.22999999999993,8.0,10.0
972.0,9.333333333333329,9.679999999999959,-2.0,-10.0,5.0,1.3599999999999177,-8.0,-3.0,3.0,7.0,8.0,10.0
973.0,9.333333333333329,10.0,-2.0,-10.0,5.0,2.0,-8.0,-3.0,3.0,7.0,8.489999999999869,10.0
974.0,9.333333333333329,10.0,-1.3800000000000976,-10.0,5.0,2.0,-8.0,-3.0,3.0,7.0,9.0,10.0
975.0,9.333333333333329,10.0,-1.0,-10.0,5.0,2.0,-8.0,-3.0,3.0,7.0,9.0,10.0
976.0,9.333333333333329,10.0,-1.0,-10.0,5.0,2.0,-8.0,-3.0,3.0,7.0,9.0,10.0
977.0,9.333333333333329,10.0,-1.0,-10.0,5.0,2.0,-8.0,-3.0,4.0,7.0,9.0,10.004999999999937
978.0,9.333333333333329,10.0,-1.0,-10.0,5.0,2.0,-8.0,-2.9300000000000463,4.0,7.0,9.0,10.569999999999954
979.0,9.603333333333234,10.0,-1.0,-10.0,5.0,2.0,-8.0,-2.365000000000047,4.0,7.269999999999906,9.0,11.0
980.0,10.333333333333329,10.0,-1.0,-10.0,5.0,2.0,-8.0,-2.0,4.0,8.0,9.0,11.0
981.0,10.333333333333329,10.0,-1.0,-10.0,5.0,2.0,-8.0,-2.0,4.0,8.0,9.0,11.0
982.0,10.333333333333329,10.0,-1.0,-10.0,5.0,2.0,-8.0,-2.0,4.3299999999999566,8.0,9.0,11.0
983.0,10.333333333333329,10.0,-1.0,-10.0,5.0,2.0,-8.0,-2.0,4.894999999999973,8.0,9.0,11.0
984.0,10.333333333333329,10.0,-1.0,-10.0,5.0,2.0,-8.0,-2.0,5.0,8.0,9.0,11.0
985.0,10.333333333333329,11.0,-1.0,-10.0,4.975000000000057,2.0,-8.0,-2.0,5.0,8.024999999999942,9.049999999999885,11.0
986.0,10.333333333333329,11.0,-1.0,-10.0,4.410000000000041,2.0,-8.0,-2.0,5.0,8.589999999999959,10.0,11.0
987.0,10.333333333333329,11.0,-1.0,-10.0,4.0,2.0,-8.0,-2.0,5.0,9.0,10.0,11.0
988.0,10.333333333333329,11.0,-1.0,-10.0,4.0,2.0,-8.0,-2.0,5.0,9.0,10.0,11.0
989.0,10.333333333333329,11.0,-1.0,-10.0,4.0,2.2849999999999446,-8.0,-2.0,5.0,9.0,10.0,11.0
990.0,10.333333333333329,11.0,-1.0,-10.699999999999923,4.0,2.8499999999999615,-8.0,-2.0,5.0,9.0,10.0,11.0
991.0,10.333333333333329,11.0,-1.0,-11.0,4.0,3.0,-8.0,-2.0,5.0,9.0,10.0,11.0
992.0,10.333333333333329,11.0,-1.0,-11.0,4.0,3.0,-8.0,-2.0,5.959999999999861,9.95999999999986,10.0,11.0
993.0,9.788333333333382,11.0,-0.4550000000000527,-11.0,4.0,3.0,-8.0,-2.0,6.0,10.0,10.0,11.0
994.0,9.333333333333329,11.0,0.0,-11.0,4.0,3.0,-8.0,-2.0,6.0,10.0,10.0,11.0
995.0,9.333333333333329,11.0,0.0,-11.0,4.0,3.0,-8.0,-1.6500000000000834,6.0,10.0,10.0,11.0
996.0,9.333333333333329,11.0,0.0,-11.0,4.0,3.0,-7.760000000000066,-1.0,6.0,10.0,10.239999999999933,11.0
997.0,9.333333333333329,11.0,0.0,-11.0,4.0,3.0,-7.19500000000005,-1.0,6.6099999999999,10.0,10.80499999999995,11.0
998.0,9.333333333333329,11.0,0.0,-11.0,4.0,3.0,-7.0,-1.0,7.0,10.739999999999933,11.0,11.0
999.0,9.333333333333329,11.0,0.0,-11.0,4.0,3.0,-7.0,-1.0,7.0,11.0,11.0,11.0
1000.0,9.333333333333329,11.0,0.0,-11.0,4.0,3.0,-7.0,-1.0,7.0,11.0,11.0,11.0
1001.0,9.333333333333329,11.0,0.0,-11.0,4.0,3.0,-7.0,-1.0,7.064999999999952,11.0,11.0,11.0
1002.0,9.333333333333329,11.0,0.0,-11.0,4.0,3.0,-7.0,-1.0,7.629999999999953,11.0,11.0,11.0
1003.0,9.333333333333329,11.0,0.0,-11.0,4.0,3.0,-7.0,-1.0,8.0,11.0,11.0,11.0
1004.0,9.333333333333329,11.0,0.0,-11.0,4.0,3.0,-7.0,-1.0,8.0,11.259999999999938,11.0,11.0
1005.0,9.333333333333329,11.0,0.0,-11.0,4.0,3.0,-7.0,-1.0,8.324999999999955,11.824999999999955,11.0,11.0
1006.0,8.553333333333384,11.0,0.7799999999999435,-11.0,3.6100000000000283,3.7799999999999434,-7.0,-1.0,8.889999999999972,12.0,11.0,11.0
1007.0,8.333333333333329,11.0,1.0,-11.0,3.04500000000007,4.0,-7.0,-1.0,9.0,12.0,11.0,11.0
1008.0,8.333333333333329,11.0,1.0,-10.980000000000059,3.0,4.0,-6.980000000000059,-0.4800000000000591,9.019999999999941,12.0,11.0,11.0
1009.0,8.333333333333329,11.0,1.0,-10.415000000000042,3.0,4.0,-6.415000000000043,0.0,9.584999999999958,12.0,11.0,10.915000000000042
1010.0,8.333333333333329,11.0,1.0,-10.0,3.0,4.0,-6.0,0.0,10.0,12.0,11.0,10.350000000000046
1011.0,8.333333333333329,11.0,1.0,-10.0,3.0,4.0,-6.0,0.0,10.0,12.429999999999854,11.0,10.0
1012.0,8.333333333333329,11.0,1.0,-10.0,3.0,4.0,-6.0,0.0,10.0,13.0,11.0,10.0
1013.0,8.333333333333329,11.0,1.0,-10.0,3.0,4.0,-6.0,0.0,10.68999999999992,13.0,11.0,10.0
1014.0,8.333333333333329,11.0,1.0,-10.0,3.0,4.0,-6.0,0.0,11.0,13.0,11.0,10.0
1015.0,7.38333333333347,11.0,1.0,-10.0,3.0,4.0,-5.050000000000141,0.0,11.0,13.0,11.0,10.0
1016.0,7.333333333333329,11.0,1.539999999999946,-10.0,3.0,4.0,-5.0,0.0,11.0,13.0,11.0,10.0
1017.0,7.333333333333329,11.0,2.0,-10.0,2.7900000000000746,4.0,-5.0,0.10499999999996275,11.0,13.0,11.0,9.790000000000074
1018.0,7.333333333333329,11.0,2.0,-10.0,2.0,4.0,-5.0,0.6699999999999576,11.0,13.0,11.0,9.0
1019.0,7.333333333333329,11.0,2.0,-10.0,2.0,4.0,-5.0,1.0,11.0,13.0,11.0,9.0
1020.0,7.333333333333329,11.0,2.0,-10.0,2.0,4.0,-4.700000000000052,1.0,11.599999999999897,13.0,11.0,9.0
1021.0,7.333333333333329,11.0,2.0,-10.0,2.0,4.0,-4.135000000000034,1.0,12.0,13.0,11.0,9.0
1022.0,7.333333333333329,11.0,2.0,-10.0,2.0,4.0,-4.0,1.0,12.0,13.0,11.0,9.0
1023.0,7.333333333333329,11.0,2.0,-10.0,2.0,4.989999999999869,-4.0,1.0,12.0,13.0,11.0,9.0
1024.0,7.333333333333329,11.0,2.0,-10.0,2.0,5.0,-3.880000000000113,1.0,12.0,13.0,11.0,8.880000000000113
1025.0,7.333333333333329,11.0,2.0,-10.0,2.0,5.0,-3.0,1.0,12.0,13.0,10.750000000000192,8.0
1026.0,7.333333333333329,11.0,2.0,-10.0,2.0,5.0,-3.0,1.0,12.0,13.0,10.0,8.0
1027.0,6.823333333333455,11.0,2.0,-10.0,2.0,5.0,-3.0,1.0,12.0,13.0,10.0,8.0
1028.0,6.333333333333329,11.0,2.0,-10.0,2.0,5.0,-3.0,1.0,12.0,13.0,10.0,8.0
1029.0,6.333333333333329,11.0,2.0,-10.0,1.6150000000000295,5.0,-2.6150000000000295,1.0,12.0,13.0,10.0,7.6150000000000295
1030.0,6.333333333333329,10.550000000000013,2.0,-10.0,1.0500000000000127,5.0,-2.0500000000000127,1.0,12.0,13.0,10.0,7.050000000000013
1031.0,6.318333333333329,10.0,2.0,-9.0,1.0,5.0,-2.0,1.0,12.0,13.0,10.0,7.0
1032.0,5.753333333333437,10.0,2.0,-9.0,1.0,5.0,-2.0,1.0,12.0,13.0,9.840000000000217,7.0
1033.0,5.333333333333329,10.0,2.0,-9.0,1.0,5.0,-2.0,1.0,12.0,13.0,9.0,6.855000000000091
1034.0,5.333333333333329,10.0,2.0,-9.0,1.0,5.0,-2.0,1.0,12.0,13.0,9.0,6.290000000000075
1035.0,5.333333333333329,10.0,2.0,-9.0,1.0,5.0,-2.0,1.0,12.0,13.0,9.0,6.0
1036.0,4.99333333333337,9.320000000000082,2.0,-9.0,1.0,5.0,-1.3200000000000822,1.0,11.660000000000041,12.320000000000082,9.0,6.0
1037.0,4.428333333333353,9.0,2.0,-9.0,1.0,4.595000000000025,-1.0,1.0,11.095000000000024,12.0,8.595000000000024,5.595000000000025
1038.0,4.333333333333329,9.0,2.0,-9.0,1.0,4.030000000000007,-1.0,1.0,11.0,12.0,8.030000000000008,5.030000000000007
1039.0,4.333333333333329,9.0,2.0,-8.0,0.93,4.0,-1.0,1.0,11.0,12.0,8.0,5.0
1040.0,4.333333333333329,8.900000000000103,2.0,-8.0,0.0,4.0,-1.0,1.0,10.900000000000103,11.900000000000103,8.0,4.800000000000206
1041.0,4.333333333333329,8.335000000000086,2.0,-8.0,0.0,4.0,-1.0,1.0,10.335000000000086,11.335000000000086,7.670000000000172,4.0
1042.0,3.873333333333467,8.0,2.0,-8.0,0.0,4.0,-1.0,1.0,10.0,11.0,7.0,4.0
1043.0,3.3333333333333286,8.0,2.0,-8.0,0.0,4.0,-1.0,1.0,10.0,11.0,7.0,3.7050000000000525
1044.0,3.3333333333333286,7.640000000000036,2.0,-8.0,0.0,4.0,-1.0,1.0,10.0,10.640000000000036,7.0,3.140000000000036
1045.0,3.3333333333333286,7.075000000000019,2.0,-7.1500000000000385,0.0,4.0,-1.0,1.0,9.150000000000038,10.075000000000019,6.1500000000000385,3.0
1046.0,3.3333333333333286,7.0,2.0,-7.0,0.0,4.0,-0.020000000000005125,1.0,9.0,10.0,6.0,3.0
1047.0,2.3333333333333286,6.945000000000114,2.0,-7.0,0.0,4.0,0.0,1.0,9.0,9.890000000000228,6.0,2.4450000000001144
1048.0,2.213333333333426,6.380000000000098,2.0,-7.0,0.0,4.0,0.0,0.8800000000000976,8.760000000000195,9.0,5.760000000000195,2.0
1049.0,1.6483333333334096,6.0,2.0,-6.6300000000001615,-0.3699999999998381,3.630000000000162,0.0,0.31500000000008094,8.0,9.0,5.0,2.0
1050.0,1.3333333333333286,6.0,2.0,-6.0,-1.0,3.0,0.0,0.0,8.0,8.500000000000128,5.0,2.0
1051.0,1.0183333333333762,5.685000000000048,2.0,-6.0,-1.0,3.0,0.0,0.0,7.685000000000048,8.0,5.0,1.6850000000000476
1052.0,0.4533333333333594,5.120000000000031,2.0,-6.0,-1.0,3.0,0.7599999999999384,0.0,7.120000000000031,8.0,4.2400000000000615,1.1200000000000307
1053.0,0.3333333333333286,5.0,2.0,-5.555000000000014,-1.0,3.0,1.0,0.0,7.0,7.555000000000014,4.0,1.0
1054.0,0.3133333333333286,5.0,2.0,-5.0,-1.0,3.0,1.0,0.0,6.0,7.0,3.99,1.0
1055.0,-0.6666666666666714,4.850000000000218,2.0,-5.0,-1.0749999999998907,3.0,1.0,0.0,6.0,6.925000000000109,3.425000000000109,0.8500000000002184
1056.0,-0.6666666666666714,4.0,2.279999999999815,-5.0,-1.6399999999999075,3.0,1.0,0.0,5.720000000000185,6.360000000000093,3.0,0.0
1057.0,-0.6666666666666714,4.0,3.0,-5.0,-2.0,3.0,1.0,0.0,5.0,6.0,3.0,0.0
1058.0,-0.9366666666666124,4.0,3.0,-4.460000000000118,-2.0,3.0,1.0,-0.5399999999998818,5.0,6.0,2.730000000000059,0.0
1059.0,-1.501666666666629,4.0,3.0,-4.0,-2.0,3.0,1.0,-1.0,5.0,5.3300000000000844,2.1650000000000422,0.0
1060.0,-1.6666666666666714,3.2000000000000512,3.0,-4.0,-2.0,2.600000000000026,1.0,-1.0,5.0,5.0,2.0,0.0
1061.0,-1.6666666666666714,3.0,3.0,-4.0,-2.0,2.035000000000009,1.0,-1.0,4.070000000000018,4.535000000000009,2.0,0.0
1062.0,-1.6666666666666714,3.0,2.0,-3.94,-2.0,2.0,1.0,-1.0,4.0,4.0,1.0,0.0
1063.0,-1.6666666666666714,3.0,2.0,-3.0,-2.0,2.0,1.0,-1.0,3.8100000000002083,4.0,1.0,0.0
1064.0,-1.6666666666666714,2.6800000000001747,2.0,-3.0,-2.0,2.0,1.0,-1.0,3.0,3.6800000000001747,1.0,0.0
1065.0,-1.6666666666666714,2.0,2.0,-3.0,-2.0,2.0,1.0,-1.4499999999998587,3.0,3.0,1.0,0.0
1066.0,-1.6666666666666714,2.0,2.0,-3.0,-2.579999999999892,2.0,1.0,-2.0,2.420000000000108,3.0,1.0,0.0
1067.0,-1.6666666666666714,2.0,2.0,-3.0,-3.0,2.0,1.0,-2.0,2.0,2.2900000000000746,1.0,0.0
1068.0,-1.6666666666666714,2.0,2.0,-2.160000000000041,-3.0,1.160000000000041,1.0,-2.0,1.160000000000041,2.0,1.0,0.0
1069.0,-1.6666666666666714,2.0,2.0,-2.0,-3.0,1.0,1.0,-2.0,1.0,2.0,1.0,0.0
1070.0,-1.6666666666666714,1.0,2.0,-2.0,-3.0,1.0,1.0,-2.0,0.9000000000002313,2.0,0.9500000000001156,0.0
1071.0,-1.6666666666666714,1.0,2.0,-2.0,-3.0,1.0,1.0,-2.2299999999998024,0.0,2.0,0.38500000000009893,0.0
1072.0,-1.6666666666666714,1.0,2.0,-2.0,-3.0,1.0,1.0,-3.0,0.0,2.0,0.0,0.0
1073.0,-1.6666666666666714,1.0,2.0,-2.0,-3.0,1.0,1.0,-3.0,-0.489999999999869,1.510000000000131,0.0,0.0
1074.0,-1.9766666666666226,1.0,2.0,-1.3800000000000976,-3.0,1.0,1.0,-3.0,-1.0,1.0,0.0,0.0
1075.0,-2.5416666666666394,1.0,2.0,-1.0,-3.0,0.6250000000000321,1.0,-3.0,-1.0,1.0,0.0,0.0
1076.0,-2.6666666666666714,1.0,2.0,-1.0,-3.0,0.06000000000001543,1.0,-3.0,-1.8799999999999693,0.5600000000000154,-0.43999999999998457,0.0
1077.0,-2.6666666666666714,1.0,2.0,-1.0,-3.0,0.0,1.0,-3.0,-2.0,0.0,-1.0,0.0
1078.0,-2.6666666666666714,1.0,2.0,-1.0,-3.0,0.0,1.0,-3.0,-2.0699999999998897,0.0,-1.0,-0.13999999999977905
1079.0,-2.6666666666666714,1.0,2.0,-1.0,-3.0,0.0,1.0,-3.0,-2.634999999999906,0.0,-1.0,-1.0
1080.0,-2.6666666666666714,1.0,2.0,-0.8000000000000771,-3.0,0.0,1.0,-3.0,-3.0,-0.39999999999984587,-1.0,-1.0
1081.0,-2.6666666666666714,0.47000000000012077,2.0,-0.23500000000006038,-3.0,0.0,1.0,-3.0,-3.0,-1.0,-1.0,-1.0
1082.0,-2.6666666666666714,0.0,2.0,0.0,-3.0,0.0,1.0,-3.0,-3.0,-1.0,-1.0,-1.0
1083.0,-2.6666666666666714,0.0,2.0,0.0,-3.0,0.0,1.0,-3.0,-3.394999999999973,-1.0,-1.0,-1.0
1084.0,-2.6666666666666714,0.0,2.0,0.0,-3.0,0.0,1.0,-3.0,-3.9599999999999898,-1.0,-1.9199999999999795,-1.0
1085.0,-2.6666666666666714,0.0,2.0,0.0,-3.0,0.0,1.0,-3.0,-4.0,-2.0,-2.0,-1.0
1086.0,-2.6666666666666714,-0.08999999999989466,1.8200000000002108,0.0,-3.0,0.0,1.0,-3.0,-4.0,-2.0,-2.0,-1.0
1087.0,-2.6666666666666714,-0.6549999999999113,1.0,0.0,-3.0,0.0,1.0,-3.0,-4.0,-2.0,-2.0,-1.0
1088.0,-2.6666666666666714,-1.0,1.0,0.0,-2.560000000000144,-0.21999999999992806,1.0,-3.0,-4.0,-2.0,-2.0,-1.0
1089.0,-2.6666666666666714,-1.0,1.0,0.0,-2.0,-0.7849999999999447,1.0,-3.0,-4.0,-2.0,-2.0,-1.0
1090.0,-2.6666666666666714,-1.0,1.0,0.0,-2.0,-1.0,1.0,-3.0,-4.0,-2.3499999999999615,-2.0,-1.0
1091.0,-2.6666666666666714,-1.0,1.0,0.0,-2.0,-1.0,1.0,-3.0,-4.0,-2.9149999999999783,-2.0,-1.0
1092.0,-2.6666666666666714,-1.0,1.0,0.0,-2.0,-1.0,1.0,-3.0,-4.0,-3.0,-2.0,-1.0
1093.0,-2.6666666666666714,-1.0,0.9550000000001169,0.0,-2.0,-1.0,1.0,-3.0,-4.0,-3.0,-2.0,-0.9550000000001169
1094.0,-2.6666666666666714,-1.0,0.3900000000001002,0.0,-2.0,-1.0,1.0,-3.0,-4.0,-3.0,-2.0,-0.3900000000001002
1095.0,-2.6666666666666714,-1.0,0.0,0.0,-2.0,-1.0,1.0,-2.8250000000000837,-4.0,-3.0,-2.0,0.0
1096.0,-2.186666666666805,-1.0,0.0,0.0,-2.0,-1.4799999999998663,1.0,-2.260000000000067,-4.0,-3.0,-2.0,0.0
1097.0,-1.6666666666666714,-1.0,0.0,0.0,-2.0,-2.0,1.0,-2.0,-4.0,-3.0,-2.0,0.0
1098.0,-1.6666666666666714,-1.0,0.0,0.0,-2.0,-2.0,1.0,-2.0,-4.0,-3.0,-2.0,0.0
1099.0,-1.6666666666666714,-1.0,0.0,0.0,-2.0,-2.0,1.0,-2.0,-4.0,-3.0,-2.0,0.0
1100.0,-1.6666666666666714,-1.0,0.0,0.0,-2.0,-2.0,1.0,-2.0,-4.0,-3.0,-2.0,0.0
1101.0,-1.6666666666666714,-1.0,-1.0,0.0,-1.0,-2.0,1.0,-2.0,-4.0,-3.0,-2.0,0.0
1102.0,-1.6666666666666714,-1.0,-1.0,0.0,-1.0,-2.0,1.0,-2.0,-4.0,-3.2599999999998097,-2.0,0.0
1103.0,-1.6666666666666714,-1.0,-1.0,0.0,-1.0,-2.0,1.0,-2.0,-4.0,-4.0,-2.0,0.0
1104.0,-1.6666666666666714,-1.0,-1.0,0.0,-1.0,-2.0,1.0,-1.4800000000001234,-4.0,-4.0,-2.0,0.0
1105.0,-1.6666666666666714,-1.0,-1.0,0.0,-1.0,-2.0,1.0,-1.0,-4.0,-4.0,-2.0,0.0
1106.0,-1.6666666666666714,-1.0,-1.0,0.0,-1.0,-2.0,1.0,-1.0,-4.0,-4.0,-2.0,0.0
1107.0,-1.6666666666666714,-1.0,-1.0,0.0,-1.0,-2.0,1.0,-1.0,-4.0,-4.0,-2.0,0.0
1108.0,-1.6666666666666714,-1.0,-1.0,0.0,-1.0,-3.0,1.0,-1.0,-4.0,-4.0,-2.0,0.0
1109.0,-1.6666666666666714,-1.0,-1.0,0.0,-1.0,-3.0,1.0,-1.0,-4.0,-4.0,-2.0,0.0
1110.0,-1.6666666666666714,-1.2999999999998202,-1.0,0.0,-1.0,-3.0,1.0,-1.0,-4.0,-4.0,-2.0,0.0
1111.0,-1.6666666666666714,-2.0,-1.0,0.0,-1.0,-3.0,1.0,-1.0,-4.0,-4.0,-2.0,0.0
1112.0,-1.6666666666666714,-2.0,-1.0,0.0,-1.0,-3.0,1.0,-1.0,-4.0,-4.0,-2.0,0.0
1113.0,-1.6666666666666714,-2.0,-1.6899999999999205,0.0,-1.0,-3.0,1.0,-1.0,-4.0,-4.0,-2.0,0.0
1114.0,-1.6666666666666714,-2.0,-2.0,0.0,-1.0,-3.0,1.0,-1.0,-4.409999999999977,-4.0,-2.0,0.0
1115.0,-1.6666666666666714,-2.0,-2.0,0.0,-1.0,-3.0,1.0,-1.0,-4.974999999999993,-4.0,-2.0,0.0
1116.0,-1.6666666666666714,-2.0,-2.0,0.0,-1.0,-3.0,1.0,-1.0,-5.0,-4.0,-2.0,0.0
1117.0,-1.6666666666666714,-2.0,-2.0,0.0,-1.0,-3.0,1.0,-1.0,-5.0,-4.0,-2.0,0.0
1118.0,-1.6666666666666714,-2.0,-2.0,0.0,-1.0,-3.0,1.0,-1.0,-5.0,-4.0,-2.0,0.0
1119.0,-1.6666666666666714,-2.0,-2.0,0.0,-1.0,-3.0,1.0,-1.0,-5.0,-4.0,-2.0,0.0
1120.0,-1.6666666666666714,-2.0,-2.0,0.0,-1.0,-3.0,1.0,-1.0,-5.0,-4.0,-2.0,0.0
1121.0,-1.6666666666666714,-2.0,-2.0,0.0,-1.0,-3.0,1.0,-1.0,-5.0,-4.0,-2.0,0.0
1122.0,-1.6666666666666714,-2.0,-2.0,0.0,-0.14000000000003598,-3.0,1.0,-1.0,-5.0,-4.0,-2.0,0.0
1123.0,-1.6666666666666714,-2.0,-2.0,0.0,0.0,-3.0,1.0,-1.0,-5.0,-4.0,-2.0,0.0
1124.0,-1.6666666666666714,-2.0,-2.0,0.0,0.0,-4.0,1.0,-1.0,-5.0,-4.0,-2.0,0.0
1125.0,-1.6666666666666714,-2.0,-2.0,0.0,0.0,-4.0,1.0,-1.0,-5.0,-4.0,-2.0,0.0
1126.0,-1.6666666666666714,-2.0,-2.0,0.0,0.0,-4.0,1.0,-1.0,-5.0,-4.0,-2.0,0.0
1127.0,-1.6666666666666714,-2.509999999999874,-2.254999999999937,0.25499999999993705,0.0,-4.0,1.0,-1.0,-5.0,-4.0,-2.0,0.0
1128.0,-1.6666666666666714,-3.0,-2.8199999999999537,0.8199999999999538,0.0,-4.0,1.0,-1.0,-5.0,-4.0,-2.0,0.0
1129.0,-1.6666666666666714,-3.0,-3.0,1.0,0.0,-4.0,1.0,-1.0,-5.0,-4.0,-2.0,0.0
1130.0,-1.6666666666666714,-3.0,-3.0,1.0,0.0,-4.0,1.0,-1.0,-5.0,-4.0,-2.0,0.0
1131.0,-1.6666666666666714,-3.0,-3.0,1.0,0.0,-4.0,1.0,-1.0,-5.0,-4.0,-2.0,0.0
1132.0,-1.6666666666666714,-3.0,-3.0,1.0,0.0,-4.0,1.0,-1.0,-5.0,-4.0,-2.0,0.0
1133.0,-1.6666666666666714,-3.0,-3.0,1.0,0.0,-4.0,1.0,-1.0,-5.0,-4.0,-2.0,0.0
1134.0,-1.6666666666666714,-3.0,-3.0,1.0,0.0,-4.0,1.0,-1.0,-5.0,-4.0,-2.0,0.0
1135.0,-1.6666666666666714,-3.0,-3.0,1.0,0.0,-4.0,1.0,-1.0,-5.0,-4.0,-2.0,0.0
1136.0,-1.6666666666666714,-3.339999999999959,-3.0,1.0,0.0,-4.0,1.0,-1.0,-5.0,-4.0,-2.0,0.0
