time_ms,I,II,III,aVR,aVL,aVF,V1,V2,V3,V4,V5,V6
0.0,0.0,0.0,0.0,0.0,0.0,1.0,0.0,0.0,-1.0,0.0,0.0,0.0
1.0,0.0,0.0,0.0,0.0,0.0,1.0,0.0,0.0,-1.0,0.0,0.0,0.0
2.0,0.0,0.0,0.0,0.0,0.0,1.0,0.0,0.0,-1.0,0.0,0.0,0.0
3.0,0.0,0.0,0.0,0.0,0.0,1.0,0.0,0.0,-1.0,0.0,0.0,0.0
4.0,0.0,0.0,0.0,0.0,0.0,1.0,0.0,0.0,-1.0,0.0,0.0,0.0
5.0,0.0,0.0,0.0,0.0,0.0,1.0,0.0,0.0,-1.0,0.0,0.0,0.0
6.0,0.0,0.0,0.0,0.0,0.0,1.0,0.0,0.0,-1.0,0.0,0.0,0.0
7.0,0.0,0.0,0.0,0.0,0.0,1.0,0.0,0.0,-1.0,0.0,0.0,0.0
8.0,0.0,0.0,0.0,0.0,0.0,1.0,0.0,0.0,-1.0,0.0,0.0,0.0
9.0,0.0,0.0,0.0,0.0,0.0,1.0,0.0,0.0,-1.0,0.0,0.0,0.0
10.0,0.0,0.0,0.0,0.0,0.0,1.0,0.0,0.0,-1.0,0.0,0.0,0.0
11.0,0.0,0.0,0.0,0.0,0.0,1.0,0.0,0.0,-1.0,0.0,0.0,0.0
12.0,0.0,0.0,0.0,0.0,0.0,1.0,0.0,0.0,-1.0,0.0,0.0,0.0
13.0,0.0,0.0,0.0,0.0,0.0,1.0,0.0,0.0,-1.0,0.0,0.0,0.0
14.0,0.0,0.0,0.0,0.0,0.0,1.0,0.0,0.0,-1.0,0.0,0.0,0.0
15.0,0.0,0.0,0.0,0.0,0.0,1.0,0.0,0.0,-1.0,0.0,0.0,0.0
16.0,0.0,0.0,0.0,0.0,0.0,1.0,0.0,0.0,-1.0,0.0,0.0,0.0
17.0,0.0,0.0,0.0,0.0,0.0,1.0,0.0,0.0,-1.0,0.0,0.0,0.0
18.0,0.0,0.0,0.0,0.0,0.0,1.0,0.0,0.0,-1.0,0.0,0.0,0.0
19.0,0.0,0.0,0.0,0.0,0.0,1.0,0.0,0.0,-1.0,0.0,0.0,0.0
20.0,0.0,0.0,0.0,0.0,0.0,1.0,0.0,0.0,-1.0,0.0,0.0,0.0
21.0,0.0,0.0,0.0,0.0,0.0,1.0,0.0,0.0,-1.0,0.0,0.0,0.0
22.0,0.0,0.0,0.0,0.0,0.0,1.0,0.0,0.0,-1.0,0.0,0.0,0.0
23.0,0.0,0.0,0.0,0.0,0.0,1.0,0.0,0.0,-1.0,0.0,0.0,0.0
24.0,0.0,0.0,0.0,0.0,0.0,1.0,0.0,0.0,-1.0,0.0,0.0,0.0
25.0,0.0,0.0,0.0,0.0,0.0,1.0,0.0,0.0,-1.0,0.0,0.0,0.0
26.0,0.0,0.0,0.0,0.0,0.0,1.0,0.0,0.0,-1.0,0.0,0.0,0.0
27.0,0.0,0.0,0.0,0.0,0.0,1.0,0.0,0.0,-1.0,0.0,0.0,0.0
28.0,0.6399999999999979,0.0,0.0,0.0,0.0,1.0,0.0,0.0,-1.0,0.0,0.0,0.0
29.0,1.0,0.0,0.0,0.0,0.0,1.0,0.0,0.0,-1.0,0.0,0.0,0.0
30.0,1.0,0.0,0.0,0.0,0.0,1.0,0.0,0.0,-1.0,0.0,0.0,0.0
31.0,0.0,0.0,0.0,0.0,0.0,1.0,0.0,0.0,-1.0,0.0,0.0,0.0
32.0,0.0,0.0,0.0,0.0,0.0,1.0,0.0,0.0,-1.0,0.0,0.0,0.0
33.0,0.0,0.0,0.0,0.0,0.0,1.0,0.0,0.0,-1.0,0.0,0.0,0.0
34.0,0.0,0.0,0.0,0.0,0.0,1.0,0.0,0.0,-1.0,0.0,0.0,0.0
35.0,0.0,0.0,0.0,0.0,0.0,1.0,0.0,0.0,-1.0,0.0,0.0,0.0
36.0,0.0,0.0,0.0,0.0,0.0,1.0,0.0,0.0,-1.0,0.0,0.0,0.0
37.0,0.0,0.0,0.0,0.0,0.0,1.0,0.0,0.0,-1.0,0.0,0.0,0.0
38.0,0.0,0.0,0.0,0.0,0.0,1.0,0.0,0.0,-1.0,0.0,0.0,0.0
39.0,0.0,0.0,0.0,0.0,0.0,1.0,0.0,0.0,-1.0,0.0,0.0,0.0
40.0,0.0,0.0,0.0,0.0,0.0,1.0,0.0,0.0,-1.0,0.0,0.0,0.0
41.0,0.0,0.0,0.0,0.0,0.0,1.0,0.0,0.0,-1.0,0.0,0.0,0.0
42.0,0.0,0.0,0.0,0.0,0.0,1.0,0.0,0.0,-1.0,0.0,0.0,0.0
43.0,0.0,0.0,0.0,0.0,0.0,1.0,0.0,0.0,-1.0,0.0,0.0,0.0
44.0,0.0,0.0,0.0,0.0,0.0,1.0,0.0,0.0,-1.0,0.0,0.0,0.0
45.0,0.0,0.0,0.0,0.0,0.0,1.0,0.0,0.0,-1.0,0.0,0.0,0.0
46.0,0.0,0.0,0.0,0.0,0.0,1.0,0.0,0.0,-1.0,0.0,0.0,0.0
47.0,0.0,0.0,0.0,0.0,0.0,1.0,0.0,0.0,-1.0,0.0,0.0,0.0
48.0,0.0,0.0,0.0,0.0,0.0,1.0,0.0,0.0,-1.0,0.0,0.0,0.0
49.0,0.0,0.0,0.0,0.0,0.0,1.0,0.0,0.0,-1.0,0.0,0.0,0.0
50.0,0.0,0.0,0.0,0.0,0.0,1.0,0.0,0.0,-1.0,0.0,0.0,0.0
51.0,0.0,0.0,0.0,0.0,0.0,1.0,0.0,0.0,-1.0,0.0,0.0,0.0
52.0,0.0,0.0,0.0,0.0,0.0,1.0,0.0,0.0,-1.0,0.0,0.0,0.0
53.0,0.0,0.0,0.0,0.0,0.0,1.0,0.0,0.0,-1.0,0.0,0.0,0.0
54.0,0.0,0.0,0.0,0.0,0.0,1.0,0.0,0.0,-1.0,0.0,0.0,0.0
55.0,0.0,0.0,0.0,0.0,0.0,1.0,0.0,0.0,-1.0,0.0,0.0,0.0
56.0,0.0,0.0,0.0,0.0,0.0,1.0,0.0,0.0,-1.0,0.0,0.0,0.0
57.0,0.0,0.0,0.0,0.0,0.0,1.0,0.0,0.0,-1.0,0.0,0.0,0.0
58.0,0.0,0.0,0.0,0.0,0.0,1.0,0.0,0.0,-1.0,0.0,0.0,0.0
59.0,0.0,0.0,0.0,0.0,0.0,1.0,0.0,0.0,-1.0,0.0,0.0,0.0
60.0,0.0,0.0,0.0,0.0,0.0,1.0,0.0,0.0,-1.0,0.0,0.0,0.0
61.0,0.0,0.0,0.0,0.0,0.0,1.0,0.0,0.0,-1.0,0.0,0.0,0.0
62.0,0.0,0.0,0.0,0.0,0.0,1.0,0.0,0.0,-1.0,0.0,0.0,0.0
63.0,0.0,0.0,0.0,0.0,0.0,1.0,0.0,0.0,-1.0,0.0,0.0,0.0
64.0,0.0,0.0,0.0,0.0,0.0,1.0,0.0,0.0,-1.0,0.0,0.0,0.0
65.0,0.0,0.0,0.0,0.0,0.0,1.0,0.0,0.0,-1.0,0.0,0.0,0.0
66.0,0.0,0.0,0.0,0.0,0.0,1.0,0.0,0.0,-1.0,0.0,0.0,0.0
67.0,0.0,0.0,0.0,0.0,0.0,1.0,0.0,0.0,-1.0,0.0,0.0,0.0
68.0,0.0,0.0,0.0,0.0,0.0,1.0,0.0,0.0,-1.0,0.0,0.0,0.0
69.0,0.0,0.0,0.0,0.0,0.0,1.0,0.0,0.0,-1.0,0.0,0.0,0.0
70.0,0.0,0.0,0.0,0.0,0.0,1.0,0.0,0.0,-1.0,0.0,0.0,0.0
71.0,0.0,0.0,0.0,0.0,0.0,1.0,0.0,0.0,-1.0,0.0,0.0,0.0
72.0,0.0,0.0,0.0,0.0,0.0,1.0,0.0,0.0,-1.0,0.0,0.0,0.0
73.0,0.0,0.0,0.0,0.0,0.0,1.0,0.0,0.0,-1.0,0.0,0.0,0.0
74.0,0.0,0.0,0.0,0.0,0.0,1.0,0.0,0.0,-1.0,0.0,0.0,0.0
75.0,0.0,0.0,0.0,0.0,0.0,1.0,0.0,0.0,-1.0,0.0,0.0,0.0
76.0,0.0,0.0,0.0,0.0,0.0,1.0,0.0,0.0,-1.0,0.0,0.0,0.0
77.0,0.0,0.0,0.0,0.0,0.0,1.0,0.0,0.0,-1.0,0.0,0.0,0.0
78.0,0.0,0.0,0.0,0.0,0.0,1.0,0.0,0.0,-1.0,0.0,0.0,0.0
79.0,0.0,0.0,0.0,0.0,0.0,1.0,0.0,0.0,-1.0,0.0,0.0,0.0
80.0,0.0,0.0,0.0,0.0,0.0,1.0,0.0,0.0,-1.0,0.0,0.0,0.0
81.0,0.0,0.0,0.0,0.0,0.0,1.0,0.0,0.0,-1.0,0.0,0.0,0.0
82.0,0.0,0.0,0.0,0.0,0.0,1.0,0.0,0.0,-1.0,0.0,0.0,0.0
83.0,0.0,0.0,0.0,0.0,0.0,1.0,0.0,0.0,-1.0,0.0,0.0,0.0
84.0,0.0,0.0,0.0,0.0,0.0,1.0,0.0,0.0,-1.0,0.0,0.0,0.0
85.0,0.0,0.0,0.0,0.0,0.0,1.0,0.0,0.0,-1.0,0.0,0.0,0.0
86.0,0.0,0.0,0.0,0.0,0.0,1.0,0.0,0.0,-1.0,0.0,0.0,0.0
87.0,0.0,0.0,0.0,0.0,0.0,1.0,0.0,0.0,-1.0,0.0,0.0,0.0
88.0,0.0,0.0,0.0,0.0,0.0,1.0,0.0,0.0,-1.0,0.0,0.0,0.0
89.0,0.0,0.0,0.0,0.0,0.0,1.0,0.0,0.0,-1.0,0.0,0.0,0.0
90.0,0.0,0.0,0.0,0.0,0.0,1.0,0.0,0.0,-1.0,0.0,0.0,0.0
91.0,0.0,0.0,0.0,0.0,0.0,1.0,0.0,0.0,-1.0,0.0,0.0,0.0
92.0,0.0,0.0,0.0,0.0,0.0,1.0,0.0,0.0,-1.0,0.0,0.0,0.0
93.0,0.0,0.0,0.0,0.0,0.0,1.0,0.0,0.0,-1.0,0.0,0.0,0.0
94.0,0.0,0.0,0.0,0.0,0.0,1.0,0.0,0.0,-1.0,0.0,0.0,0.0
95.0,0.0,0.0,0.0,0.0,0.0,1.0,0.0,0.0,-1.0,0.0,0.0,0.0
96.0,0.0,0.0,0.0,0.0,0.0,1.0,0.0,0.0,-1.0,0.0,0.0,0.0
97.0,0.0,0.0,0.0,0.0,0.0,1.0,0.0,0.0,-1.0,0.0,0.0,0.0
98.0,0.0,0.0,0.0,0.0,0.0,1.0,0.0,0.0,-1.0,0.0,0.0,-0.36999999999999483
99.0,0.0,0.0,0.0,0.0,0.0,1.0,0.0,0.0,-1.0,0.0,0.0,-0.9349999999999934
100.0,0.0,0.0,0.0,0.0,0.0,1.0,0.0,0.0,-1.0,0.0,0.0,-1.0
101.0,0.0,-1.0,0.0,0.0,0.0,1.0,0.0,0.0,-1.0,0.0,0.0,-1.0
102.0,0.0,-1.0,0.0,0.0,0.0,1.0,0.0,0.0,-1.0,0.0,0.0,-1.0
103.0,0.0,-1.0,0.0,0.0,0.0,1.0,0.0,0.0,-1.0,0.0,0.0,-1.0
104.0,0.0,-1.0,0.0,0.0,0.0,1.0,0.0,0.0,-1.0,0.0,0.0,-1.0
105.0,0.0,-1.0,0.0,0.0,0.0,1.0,0.0,0.0,-1.0,0.0,0.0,-0.6750000000000073
106.0,0.0,-1.0,0.0,0.0,0.0,1.0,0.0,0.0,-1.0,0.0,0.0,-0.1100000000000087
107.0,0.0,-1.0,0.0,0.0,0.0,1.0,0.0,0.0,-1.0,0.0,0.0,0.0
108.0,0.0,-1.0,0.0,0.0,0.0,1.0,0.019999999999996465,0.0,-1.0,0.0,0.0,-1.0
109.0,0.0,-1.0,0.0,0.0,0.0,0.915000000000005,0.584999999999995,0.0,-1.0,0.0,0.0,-1.0
110.0,0.0,-1.0,0.0,0.0,0.0,0.3500000000000064,1.0,0.0,-1.0,0.0,0.0,-1.0
111.0,0.0,-1.0,0.0,0.0,0.0,0.0,1.0,0.0,-1.0,0.0,0.0,-1.0
112.0,0.0,-1.0,-0.27999999999999065,0.0,0.0,0.0,1.0,0.0,-1.0,0.0,0.0,-1.0
113.0,0.0,-1.0,-0.8449999999999948,0.0,0.0,0.0,1.0,0.0,-1.0,0.0,0.0,-1.0
114.0,0.0,-1.0,-1.0,0.0,0.0,0.0,1.0,0.0,-1.0,0.0,0.0,-1.0
115.0,0.0,-1.0,-1.0,0.0,0.0,0.0,1.0,0.0,-1.0,0.0,0.0,-1.0
116.0,0.0,-1.0,-1.0,0.0,0.0,0.0,1.0,0.0,-1.0,0.0,0.0,-1.0
117.0,0.0,-1.0,-1.0,0.0,0.0,0.0,1.0,0.0,-1.0,0.0,0.0,-1.0
118.0,0.0,-1.0,-1.0,0.0,0.0,0.0,1.0,0.0,-1.0,0.0,0.0,-1.0
119.0,0.0,-1.0,-1.0,0.0,0.0,0.0,1.0,0.0,-1.0,0.0,0.0,-1.0
120.0,0.0,-1.0,-1.0,0.0,0.0,0.0,1.0,0.0,-1.0,0.0,0.0,-1.0
121.0,0.0,-1.0,-0.27000000000001256,0.0,0.0,0.0,1.0,0.0,-1.0,0.0,0.0,-1.0
122.0,0.0,-1.0,0.0,0.0,0.0,0.0,1.0,0.0,-1.0,0.0,0.0,-1.0
123.0,0.0,-1.0,0.0,0.0,0.0,0.0,1.0,0.0,-1.0,0.0,0.0,-1.0
124.0,0.0,-0.8800000000000193,0.0,0.0,0.0,0.11999999999998072,1.0,0.0,-1.0,0.0,0.0,-1.0
125.0,0.0,0.0,0.0,0.0,0.0,1.0,1.0,0.0,-1.0,0.0,0.0,-1.0
126.0,0.0,0.0,0.0,0.0,0.0,1.0,1.0,0.0,-1.0,0.0,0.0,-1.0
127.0,0.0,0.0,0.0,0.0,0.0,1.0,1.0,0.0,-0.49000000000001387,0.0,0.0,-1.0
128.0,0.0,0.0,0.0,0.0,0.0,1.0,1.0,0.0,0.0,0.0,0.0,-1.0
129.0,0.0,0.0,0.0,0.0,0.0,1.0,1.0,0.0,0.0,0.0,0.0,-1.0
130.0,0.0,0.0,0.0,0.0,0.0,1.0,1.0,0.0,0.0,0.0,0.0,-1.0
131.0,-0.029999999999974627,0.0,0.0,0.0,0.0,1.0,1.0,0.0,0.5149999999999874,0.0,-0.029999999999974627,-1.0149999999999872
132.0,-1.0,0.0,0.0,0.0,0.0,1.0,1.0,0.0,1.0,0.0,-1.0,-1.5799999999999885
133.0,-1.0,0.0,0.0,0.0,0.0,1.0,1.0,0.0,1.0,0.0,-1.0,-2.0
134.0,-1.0,0.0,0.0,0.0,0.0,1.0,1.4199999999999982,0.0,1.0,0.0,-1.0,-2.0
135.0,-1.0,0.0,0.0,0.0,0.0,1.0,2.0,0.0,1.2749999999999977,0.0,-1.0,-2.0
136.0,-1.339999999999996,0.0,0.0,0.33999999999999614,0.0,1.0,2.0,0.0,1.839999999999996,0.0,-1.0,-2.0
137.0,-1.9049999999999947,-0.8099999999999893,0.0,0.9049999999999947,0.0,1.0,2.0,0.0,2.0,0.0,-1.0,-2.8099999999999894
138.0,-2.0,-1.0,0.0,1.0,0.0,1.0,2.0,0.0,2.0,0.0,-1.0,-3.0
139.0,-2.0349999999999917,-1.0,0.0,1.0,-0.06999999999998362,1.0,2.0699999999999834,1.0,3.0,0.0,-1.0,-3.0
140.0,-2.5999999999999903,-1.0,0.0,1.0,-1.0,1.0,3.0,1.0,3.0999999999999903,0.0,-1.0,-3.1999999999999806
141.0,-3.0,-1.0,0.0,1.0,-1.0,1.0,3.0,1.0,3.664999999999989,0.0,-1.0,-4.0
142.0,-3.0,-1.0,0.0,1.0,-1.0,1.0,3.0,1.0,4.0,0.0,-1.4599999999999749,-4.0
143.0,-3.294999999999986,-1.0,0.294999999999986,1.0,-1.0,1.0,3.589999999999972,1.0,4.294999999999986,0.0,-2.0,-4.294999999999986
144.0,-3.8599999999999963,-1.0,0.8599999999999961,1.0,-1.0,1.0,4.0,1.0,4.859999999999996,0.0,-2.0,-4.859999999999996
145.0,-4.0,-1.0,1.0,1.0,-1.0,1.0,4.0,1.0,5.0,0.0,-2.0,-5.0
146.0,-4.0,-1.0,1.0,1.9799999999999955,-1.4899999999999978,1.0,4.4899999999999975,1.0,5.0,0.0,-2.0,-5.0
147.0,-4.109999999999992,-2.0,1.0,2.0,-2.0,1.0,5.0,2.0,5.554999999999996,0.0,-2.1099999999999928,-6.0
148.0,-5.0,-2.0,1.0,2.0,-2.0,1.0,5.0,2.0,6.0,0.0,-3.0,-6.119999999999995
149.0,-5.0,-2.0,1.0,2.0,-2.0,1.0,5.369999999999987,2.0,6.0,0.0,-3.0,-6.684999999999993
150.0,-5.0,-2.0,1.249999999999992,2.0,-2.0,1.0,6.0,2.0,6.0,0.0,-3.0,-7.0
151.0,-5.629999999999981,-2.0,1.8149999999999906,2.0,-2.3149999999999906,1.0,6.0,2.0,6.0,0.0,-3.0,-7.314999999999991
152.0,-6.0,-2.0,2.0,2.0,-2.8799999999999892,1.0,6.0,2.0,6.379999999999989,0.0,-3.759999999999978,-7.879999999999989
153.0,-6.0,-2.0,2.0,2.8899999999999753,-3.0,1.0,6.0,2.0,6.944999999999988,0.0,-4.0,-8.0
154.0,-7.0,-2.0,2.0,3.0,-3.0,1.0,7.0,2.0,7.0,0.0,-4.0,-9.0
155.0,-7.074999999999987,-2.0,2.149999999999974,3.0,-3.149999999999974,1.0,7.0,2.0,7.0,0.0,-4.149999999999975,-9.074999999999987
156.0,-7.64,-2.0,3.0,3.0,-4.0,1.0,7.0,2.0,7.0,0.0,-5.0,-9.639999999999999
157.0,-8.0,-2.0,3.0,3.0,-4.0,1.0,7.0,2.0,7.0,0.0,-5.0,-10.0
158.0,-8.539999999999992,-2.539999999999993,3.0,3.2699999999999965,-4.0,1.0,7.539999999999993,2.0,7.0,0.0,-5.269999999999996,-10.539999999999992
159.0,-9.0,-3.0,3.0,3.834999999999995,-4.334999999999995,1.0,8.0,2.0,7.0,0.0,-5.834999999999995,-11.0
160.0,-9.0,-3.0,3.799999999999987,4.0,-4.899999999999993,1.0,8.0,2.0,7.0,0.0,-6.0,-11.799999999999986
161.0,-9.929999999999984,-3.0,4.0,4.0,-5.0,1.0,8.0,2.0,7.0,0.0,-6.929999999999984,-12.0
162.0,-10.0,-3.0,4.0,4.0299999999999905,-5.0299999999999905,1.0,8.52999999999999,2.0,7.0,0.0,-7.0,-12.059999999999981
163.0,-10.189999999999978,-3.1899999999999786,4.0,4.594999999999989,-5.594999999999989,1.0,9.0,2.0,7.0,0.0,-7.189999999999978,-13.0
164.0,-11.0,-4.0,4.0,5.0,-6.0,1.3199999999999756,9.0,2.0,7.0,0.0,-8.0,-13.319999999999975
165.0,-11.0,-4.0,4.449999999999973,5.0,-6.0,2.0,9.0,2.0,7.0,-0.22499999999998632,-8.0,-14.0
166.0,-11.57999999999997,-4.289999999999985,5.0,5.289999999999985,-6.0,1.710000000000015,9.57999999999997,2.0,7.0,-0.7899999999999849,-8.57999999999997,-14.289999999999985
167.0,-12.0,-4.8549999999999836,5.0,5.8549999999999836,-6.709999999999967,1.1450000000000164,10.0,2.0,7.0,-1.0,-9.0,-14.854999999999983
168.0,-12.0,-5.4199999999999955,5.0,6.0,-7.0,1.0,10.419999999999995,2.0,7.0,-1.0,-9.839999999999991,-15.419999999999995
169.0,-12.969999999999994,-5.984999999999997,5.0,6.0,-7.0,1.0,10.984999999999996,2.0,7.0,-1.0,-10.0,-15.984999999999996
170.0,-13.0,-6.549999999999995,5.0,6.549999999999995,-7.0,1.0,11.049999999999995,3.0,7.0,-2.0,-10.549999999999995,-16.09999999999999
171.0,-13.114999999999993,-7.229999999999987,5.0,7.0,-7.0,1.0,11.614999999999993,3.0,7.0,-2.1149999999999936,-11.229999999999988,-17.114999999999995
172.0,-13.679999999999993,-8.359999999999985,5.0,7.0,-7.0,1.0,12.0,3.0,7.0,-2.679999999999992,-12.0,-17.679999999999993
173.0,-14.0,-9.24499999999999,5.0,7.489999999999982,-7.0,1.0,12.489999999999982,3.4899999999999816,6.755000000000009,-3.0,-12.24499999999999,-18.24499999999999
174.0,-14.0,-10.11999999999998,4.380000000000021,8.0,-7.0,1.0,13.0,4.0,6.19000000000001,-3.619999999999979,-13.11999999999998,-18.809999999999988
175.0,-14.374999999999988,-10.874999999999988,4.0,8.749999999999975,-7.749999999999976,0.2500000000000242,13.749999999999975,4.0,5.250000000000024,-4.374999999999988,-13.874999999999988,-19.749999999999975
176.0,-14.939999999999987,-11.879999999999972,4.0,9.0,-8.0,0.0,14.0,4.0,5.0,-4.939999999999986,-14.879999999999972,-20.879999999999974
177.0,-15.004999999999985,-13.004999999999985,3.9950000000000148,9.00999999999997,-8.0,-0.00999999999997013,15.0,4.004999999999985,4.0,-6.0,-16.0,-21.00999999999997
178.0,-15.569999999999984,-13.569999999999984,3.4300000000000166,10.0,-8.0,-1.0,15.0,4.569999999999983,3.9300000000000166,-6.139999999999967,-16.13999999999997,-22.13999999999997
179.0,-16.0,-14.269999999999973,3.0,10.269999999999973,-8.0,-1.1349999999999865,15.269999999999973,5.0,3.3650000000000135,-7.1349999999999865,-17.269999999999975,-23.269999999999975
180.0,-16.399999999999995,-15.399999999999993,3.0,11.0,-8.0,-1.6999999999999968,16.0,5.0,3.0,-7.699999999999997,-18.399999999999995,-24.399999999999995
181.0,-17.0,-16.0,3.0,11.264999999999995,-8.0,-2.0,16.0,5.0,2.4700000000000095,-8.52999999999999,-19.264999999999997,-25.264999999999997
182.0,-17.329999999999995,-16.65999999999999,2.670000000000006,11.829999999999995,-8.0,-2.329999999999994,16.0,5.0,2.0,-9.329999999999995,-20.15999999999999,-26.15999999999999
183.0,-17.894999999999992,-17.0,2.1050000000000075,12.394999999999992,-8.0,-2.8949999999999925,16.394999999999992,5.0,2.0,-9.894999999999992,-21.289999999999985,-27.289999999999985
184.0,-18.0,-17.91999999999998,2.0,12.95999999999999,-8.0,-3.0,16.95999999999999,5.0,1.080000000000018,-10.919999999999982,-21.95999999999999,-27.95999999999999
185.0,-19.0,-18.0,2.0,13.02499999999999,-8.02499999999999,-3.0249999999999897,17.0,5.0,1.0,-11.04999999999998,-23.04999999999998,-28.54999999999998
186.0,-19.08999999999999,-18.0,2.0,13.589999999999987,-8.589999999999987,-3.5899999999999883,17.0,4.820000000000023,0.8200000000000238,-12.0,-24.179999999999975,-29.679999999999975
187.0,-19.654999999999987,-18.0,2.0,14.0,-9.0,-4.0,16.690000000000026,4.0,0.0,-12.309999999999974,-25.309999999999974,-30.654999999999987
188.0,-20.0,-17.56000000000003,2.0,14.0,-9.0,-4.0,16.0,4.0,0.0,-13.0,-26.0,-31.43999999999997
189.0,-20.284999999999982,-17.0,2.5699999999999674,14.569999999999968,-9.0,-4.0,16.0,3.4300000000000326,-0.5699999999999675,-13.0,-26.56999999999997,-32.0
190.0,-20.849999999999984,-16.300000000000036,3.0,15.0,-9.699999999999964,-4.0,15.300000000000036,3.0,-1.0,-13.0,-27.699999999999964,-32.69999999999997
191.0,-21.0,-15.170000000000012,3.4149999999999943,15.0,-10.0,-3.1700000000000115,14.585000000000006,2.1700000000000115,-1.0,-13.414999999999994,-28.414999999999996,-33.41499999999999
192.0,-21.0,-14.04000000000001,3.9799999999999955,15.0,-10.0,-3.0,14.020000000000005,2.0,-1.0,-13.979999999999995,-28.979999999999997,-33.98
193.0,-22.0,-13.18333333333335,4.089999999999988,15.0,-11.0,-2.9100000000000117,13.455000000000005,1.0,-1.0,-13.455000000000005,-29.544999999999995,-34.08999999999999
194.0,-22.0,-11.410000000000021,5.109999999999992,15.0,-11.219999999999985,-2.0,12.780000000000015,0.7800000000000148,-0.8900000000000075,-13.0,-30.219999999999985,-35.0
195.0,-22.0,-10.150000000000018,5.674999999999991,15.0,-12.0,-1.6500000000000177,12.0,0.0,-0.32500000000000884,-13.0,-31.0,-35.34999999999998
196.0,-22.23999999999999,-8.940000000000023,6.2399999999999896,15.0,-12.23999999999999,-1.0,11.520000000000021,0.0,0.2399999999999897,-13.0,-31.23999999999999,-36.0
197.0,-22.80499999999999,-7.316666666666707,7.109999999999976,15.0,-12.804999999999989,-0.39000000000002355,10.695000000000011,0.0,0.8049999999999882,-12.390000000000024,-31.80499999999999,-36.304999999999986
198.0,-23.0,-5.680000000000033,8.239999999999974,15.0,-13.739999999999974,0.3699999999999868,10.130000000000013,-0.7399999999999736,1.3699999999999868,-12.0,-32.36999999999999,-36.86999999999999
199.0,-23.0,-4.173333333333372,9.36999999999997,14.13000000000003,-14.434999999999985,0.9349999999999854,9.13000000000003,-1.0,1.9349999999999854,-11.565000000000015,-32.93499999999999,-37.0
200.0,-23.0,-2.666666666666714,9.999999999999984,14.0,-14.999999999999984,1.0,8.000000000000032,-1.0,2.999999999999968,-11.000000000000016,-33.0,-37.0
201.0,-23.0,-1.1600000000000426,11.173333333333286,14.0,-15.564999999999982,2.129999999999965,7.870000000000035,-2.0,3.0649999999999826,-10.435000000000018,-33.12999999999997,-38.0
202.0,-23.0,0.17333333333331485,12.63666666666663,13.74000000000003,-16.25999999999997,3.2599999999999705,6.870000000000015,-2.1299999999999852,3.6299999999999852,-9.74000000000003,-34.0,-38.12999999999999
203.0,-23.0,1.186666666666658,13.694999999999995,13.0,-17.0,4.389999999999992,6.305000000000004,-2.694999999999996,4.0,-9.0,-34.0,-38.69499999999999
204.0,-23.0,2.6933333333333156,14.693333333333316,13.0,-17.51999999999999,5.2599999999999945,5.7400000000000055,-3.0,4.519999999999988,-8.480000000000011,-34.0,-39.0
205.0,-23.0,4.199999999999982,16.091666666666647,12.350000000000014,-18.324999999999992,6.149999999999985,4.850000000000015,-3.3249999999999926,5.0,-7.675000000000007,-34.649999999999984,-39.324999999999996
206.0,-23.0,5.966666666666635,17.279999999999983,12.0,-18.88999999999999,7.409999999999983,4.110000000000008,-3.8899999999999912,5.389999999999992,-6.7200000000000175,-35.0,-39.88999999999999
207.0,-23.0,7.546666666666644,18.561666666666646,11.090000000000021,-19.90999999999998,8.879999999999974,3.0900000000000203,-4.0,5.954999999999989,-6.045000000000011,-35.0,-40.0
208.0,-23.0,9.053333333333303,20.01999999999999,10.980000000000011,-20.039999999999978,10.026666666666651,2.960000000000023,-4.039999999999977,7.0,-4.980000000000012,-35.0,-40.0
209.0,-23.0,10.531666666666633,20.698333333333302,10.415000000000013,-21.0,10.893333333333302,1.915000000000013,-5.0,7.169999999999974,-4.330000000000026,-35.0,-40.0
210.0,-22.850000000000016,11.79999999999997,22.06666666666663,9.850000000000014,-21.299999999999972,12.29999999999997,1.3500000000000145,-5.0,8.29999999999997,-3.200000000000029,-35.0,-40.149999999999984
211.0,-22.285000000000014,12.929999999999968,23.429999999999968,9.285000000000016,-22.0,13.429999999999968,0.5700000000000318,-5.0,9.0,-2.285000000000016,-35.0,-40.28500000000002
212.0,-22.0,14.059999999999965,24.279999999999983,8.720000000000017,-22.559999999999967,14.279999999999983,0.0,-5.0,9.559999999999965,-1.4400000000000346,-35.0,-40.0
213.0,-22.0,15.304999999999959,25.189999999999962,8.155000000000019,-23.0,15.304999999999959,0.0,-5.0,10.689999999999962,-0.3100000000000377,-34.655000000000015,-40.0
214.0,-21.590000000000007,16.759999999999984,26.319999999999986,7.590000000000007,-23.819999999999986,16.759999999999984,0.0,-5.0,11.409999999999993,0.0,-34.09000000000001,-40.0
215.0,-21.025000000000006,17.94999999999999,26.974999999999994,7.025000000000006,-24.0,17.94999999999999,-0.9499999999999886,-5.0,11.974999999999994,0.9499999999999886,-34.0,-40.0
216.0,-21.0,18.579999999999984,28.079999999999984,6.460000000000007,-24.539999999999992,18.579999999999984,-1.039999999999993,-5.0,13.0,1.5799999999999859,-33.46000000000001,-39.0
217.0,-20.790000000000017,19.709999999999983,29.209999999999983,5.8950000000000085,-25.0,19.709999999999983,-1.6049999999999915,-5.0,13.209999999999983,2.709999999999983,-32.89500000000001,-38.79000000000002
218.0,-20.0,20.83999999999998,30.33999999999998,5.33000000000001,-25.33999999999998,20.83999999999998,-2.33999999999998,-5.0,14.16999999999999,3.896666666666645,-32.33000000000001,-37.83000000000001
219.0,-19.530000000000022,21.73499999999999,31.0,4.5300000000000225,-26.0,21.73499999999999,-3.0,-5.0,14.734999999999989,5.2933333333333055,-32.0,-37.265000000000015
220.0,-19.0,22.599999999999973,31.599999999999973,4.0,-26.0,22.599999999999973,-3.299999999999987,-5.0,15.0,6.299999999999987,-31.400000000000027,-36.70000000000001
221.0,-18.635000000000016,23.729999999999972,32.72999999999997,3.270000000000029,-26.0,23.729999999999972,-3.8649999999999856,-5.0,15.729999999999972,7.229999999999971,-30.635000000000016,-35.77000000000003
222.0,-18.070000000000014,24.429999999999986,33.429999999999986,2.570000000000016,-26.859999999999967,24.429999999999986,-4.429999999999985,-5.0,16.0,8.35999999999997,-29.640000000000033,-34.64000000000003
223.0,-18.0,24.994999999999983,33.99499999999998,2.005000000000017,-27.0,24.994999999999983,-4.994999999999983,-5.0,16.0,8.994999999999983,-29.005000000000017,-34.00500000000002
224.0,-17.44000000000002,26.119999999999962,35.05999999999998,1.4400000000000186,-27.0,26.119999999999962,-5.119999999999963,-5.0,17.0,10.119999999999962,-28.380000000000038,-33.38000000000004
225.0,-16.875000000000018,27.249999999999968,35.749999999999964,0.7500000000000321,-27.249999999999968,27.249999999999968,-6.0,-5.0,17.0,11.124999999999984,-27.250000000000032,-32.250000000000036
226.0,-16.310000000000006,28.37999999999999,36.69,0.0,-28.0,28.189999999999994,-6.379999999999989,-5.0,17.0,11.879999999999988,-26.12000000000001,-31.12000000000001
227.0,-16.0,29.509999999999987,37.509999999999984,0.0,-28.0,28.754999999999992,-7.0,-5.0,17.0,12.754999999999994,-25.245000000000008,-30.245000000000008
228.0,-15.680000000000009,30.319999999999993,38.0,-0.3199999999999916,-28.0,29.639999999999983,-7.0,-5.0,17.0,13.639999999999983,-24.680000000000007,-29.360000000000017
229.0,-15.115000000000009,30.88499999999999,38.76999999999998,-0.8849999999999902,-28.0,30.769999999999982,-7.76999999999998,-5.0,17.0,14.384999999999991,-23.730000000000018,-28.230000000000018
230.0,-15.0,31.899999999999977,39.44999999999999,-1.4499999999999886,-28.0,31.44999999999999,-8.0,-5.449999999999989,17.0,14.949999999999989,-22.600000000000023,-27.100000000000023
231.0,-14.985000000000012,32.0,40.0,-2.0,-28.029999999999976,32.014999999999986,-8.0,-5.985000000000013,17.0,16.0,-21.970000000000024,-25.985000000000014
232.0,-14.420000000000014,32.0,40.079999999999984,-2.1599999999999717,-29.0,32.579999999999984,-8.0,-5.420000000000014,16.920000000000016,16.15999999999997,-20.84000000000003,-25.34000000000003
233.0,-14.0,32.28999999999997,40.64499999999998,-3.0,-29.0,33.14499999999998,-8.0,-5.0,16.355000000000015,17.0,-19.710000000000033,-24.210000000000033
234.0,-14.0,32.580000000000034,41.0,-3.4199999999999657,-29.0,33.70999999999998,-8.0,-5.0,16.0,17.0,-19.0,-23.290000000000017
235.0,-13.72500000000002,32.0,41.0,-4.0,-29.0,34.0,-8.0,-5.0,16.0,17.54999999999996,-18.45000000000004,-22.45000000000004
236.0,-13.16000000000002,32.0,41.33999999999998,-4.0,-29.0,34.0,-8.0,-5.0,15.32000000000004,18.0,-17.32000000000004,-21.66000000000002
237.0,-13.0,32.0,41.904999999999994,-4.809999999999984,-29.0,34.80999999999998,-7.595000000000009,-5.0,14.595000000000008,18.0,-16.190000000000015,-20.690000000000015
238.0,-13.0,31.53000000000001,42.0,-5.0,-28.060000000000013,35.0,-7.0300000000000065,-5.0,14.030000000000006,18.0,-15.530000000000006,-19.560000000000013
239.0,-12.965000000000009,31.0,42.0,-5.0,-28.0,35.0,-7.0,-5.0,13.930000000000016,18.0,-14.930000000000016,-18.930000000000017
240.0,-12.40000000000001,30.80000000000002,41.90000000000001,-5.099999999999991,-28.0,35.0,-7.0,-5.0,12.90000000000001,18.0,-13.90000000000001,-17.90000000000001
241.0,-12.0,29.83500000000001,41.33500000000001,-5.6649999999999885,-28.0,35.0,-6.670000000000022,-5.0,12.170000000000023,18.0,-13.335000000000012,-17.170000000000023
242.0,-12.0,29.270000000000014,41.0,-6.0,-28.0,35.0,-6.0,-4.540000000000025,11.270000000000012,18.0,-12.540000000000026,-16.270000000000014
243.0,-12.0,28.705000000000013,41.0,-6.0,-27.41000000000003,35.0,-6.0,-4.0,10.410000000000029,18.0,-12.0,-15.705000000000014
244.0,-11.280000000000031,27.78000000000003,40.640000000000015,-6.0,-27.0,34.640000000000015,-5.640000000000016,-4.0,9.640000000000015,18.0,-11.280000000000031,-15.140000000000015
245.0,-11.0,26.650000000000034,40.07500000000002,-6.0,-27.0,34.07500000000002,-5.075000000000017,-4.0,8.650000000000034,18.0,-10.575000000000017,-14.150000000000034
246.0,-11.0,26.01000000000002,40.0,-6.0,-26.020000000000035,34.0,-5.0,-4.0,7.520000000000037,17.020000000000035,-10.010000000000018,-13.510000000000018
247.0,-10.89000000000004,24.945000000000018,39.0,-6.0,-26.0,33.890000000000036,-4.0,-4.0,6.94500000000002,17.0,-9.89000000000004,-12.94500000000002
248.0,-10.0,24.260000000000034,38.76000000000003,-6.0,-25.760000000000034,33.0,-4.0,-4.0,6.380000000000018,16.760000000000034,-9.0,-12.380000000000017
249.0,-10.0,23.130000000000013,37.815000000000005,-6.0,-25.0,32.63000000000001,-3.8150000000000066,-3.8150000000000066,5.630000000000013,16.0,-8.630000000000013,-11.630000000000013
250.0,-10.0,22.250000000000007,37.25000000000001,-6.0,-24.500000000000018,32.0,-3.250000000000008,-3.250000000000008,5.0,16.0,-8.0,-11.0
251.0,-9.68500000000001,21.37000000000002,36.68500000000001,-6.0,-24.0,31.68500000000001,-3.0,-3.0,4.370000000000019,15.370000000000019,-7.685000000000009,-10.68500000000001
252.0,-9.120000000000012,20.240000000000023,36.12000000000001,-6.0,-23.62000000000001,31.12000000000001,-3.0,-3.0,3.6200000000000108,15.0,-7.120000000000011,-9.740000000000022
253.0,-9.0,19.555000000000014,35.11000000000003,-6.0,-23.055000000000014,30.110000000000024,-3.0,-3.0,3.0550000000000126,14.110000000000024,-6.555000000000012,-9.055000000000012
254.0,-8.0,18.98000000000003,33.990000000000016,-5.980000000000028,-22.98000000000003,29.98000000000003,-2.0,-3.0,2.0,13.990000000000014,-6.0,-8.0
255.0,-8.0,17.85000000000003,33.35000000000003,-5.0,-21.925000000000015,28.925000000000015,-2.0,-3.0,1.9250000000000154,13.425000000000015,-5.850000000000031,-7.850000000000031
256.0,-7.7200000000000335,16.720000000000034,32.360000000000014,-5.0,-21.360000000000017,28.220000000000034,-2.0,-3.0,1.3600000000000168,12.860000000000017,-5.0,-6.860000000000016
257.0,-7.0,15.590000000000023,31.590000000000025,-5.0,-20.590000000000025,27.295000000000012,-2.0,-3.0,0.7950000000000116,12.295000000000012,-4.590000000000023,-6.2950000000000115
258.0,-6.460000000000024,15.0,30.460000000000026,-5.0,-20.0,26.460000000000026,-2.0,-3.0,0.2300000000000122,12.0,-4.0,-5.460000000000024
259.0,-6.0,14.33000000000002,29.66500000000001,-5.0,-19.33000000000002,25.66500000000001,-2.0,-3.0,0.0,11.33000000000002,-3.6650000000000102,-5.0
260.0,-5.600000000000019,13.200000000000038,28.56666666666671,-5.0,-18.60000000000002,24.70000000000004,-2.0,-3.0,0.0,11.0,-3.100000000000019,-4.200000000000038
261.0,-5.035000000000009,12.535000000000009,27.09333333333336,-5.0,-18.035000000000007,24.035000000000007,-2.0,-2.070000000000018,-0.9299999999999821,10.535000000000009,-2.535000000000009,-3.070000000000018
262.0,-4.0,11.94000000000005,25.970000000000024,-4.940000000000049,-16.970000000000024,22.970000000000024,-2.0,-2.0,-1.0,10.0,-2.0,-2.940000000000049
263.0,-3.905000000000014,10.905000000000014,25.310000000000027,-4.0,-16.405000000000015,22.310000000000027,-2.0,-2.0,-1.0,9.905000000000014,-1.8100000000000276,-1.8100000000000276
264.0,-3.340000000000023,10.340000000000023,24.180000000000046,-4.0,-15.680000000000046,21.340000000000025,-2.0,-2.0,-1.0,9.340000000000023,-1.0,-0.8400000000000232
265.0,-2.5500000000000127,9.550000000000013,22.975000000000012,-4.0,-14.550000000000013,20.55000000000001,-2.0,-2.0,-1.0,9.0,-0.5500000000000128,-0.2750000000000064
266.0,-2.0,9.0,21.56000000000002,-4.0,-14.0,19.420000000000016,-2.0,-2.0,-1.0,8.420000000000016,0.0,0.0
267.0,-1.2900000000000102,8.29000000000001,20.645000000000007,-4.0,-13.29000000000001,18.645000000000007,-2.0,-2.0,-1.0,8.0,0.0,0.7099999999999898
268.0,-0.5800000000000154,8.0,19.660000000000032,-4.0,-12.16000000000003,18.080000000000016,-2.0,-2.0,-1.0,8.0,0.0,1.4199999999999846
269.0,-0.015000000000003844,7.030000000000007,18.36833333333334,-4.0,-11.515000000000004,17.03000000000001,-2.0,-2.0,-1.9699999999999922,7.515000000000004,0.48499999999999616,1.984999999999996
270.0,0.0,6.9000000000000385,16.95000000000002,-4.0,-10.900000000000038,15.950000000000019,-2.0,-2.0,-2.0,7.0,1.0,3.0
271.0,0.22999999999998008,6.0,16.27000000000002,-4.0,-9.88500000000001,15.27000000000002,-2.0,-1.77000000000002,-2.0,7.0,1.22999999999998,3.22999999999998
272.0,1.179999999999982,5.640000000000036,15.140000000000036,-4.0,-9.140000000000036,14.320000000000018,-2.359999999999964,-1.0,-2.359999999999964,6.640000000000036,2.0,4.359999999999964
273.0,1.744999999999983,5.0,14.255000000000017,-4.0,-8.255000000000017,13.510000000000034,-3.0,-1.0,-3.0,6.0,2.489999999999966,5.0
274.0,2.0,5.0,13.17333333333338,-4.0,-7.380000000000034,12.690000000000017,-3.0,-1.0,-3.0,6.0,3.0,5.619999999999966
275.0,2.749999999999952,4.250000000000048,11.791666666666725,-4.0,-6.625000000000024,12.125000000000025,-3.0,-1.0,-3.0,6.0,3.374999999999976,6.374999999999976
276.0,3.0,4.0,10.620000000000031,-4.0,-5.620000000000031,11.120000000000031,-3.0,-1.0,-3.8799999999999693,5.120000000000031,3.9399999999999844,6.939999999999984
277.0,4.0,3.0,9.495,-4.0,-4.989999999999998,10.0,-3.0,-1.0,-4.0,5.0,4.010000000000002,7.505000000000001
278.0,4.069999999999986,3.0,8.860000000000028,-4.0,-4.0,9.860000000000028,-3.0,-1.0,-4.0,5.0,5.0,8.069999999999986
279.0,4.634999999999994,2.865000000000006,7.730000000000012,-4.0,-3.730000000000012,8.730000000000013,-3.134999999999994,-1.0,-4.0,4.730000000000012,5.134999999999994,8.634999999999994
280.0,5.0,2.3000000000000127,6.600000000000025,-4.0,-2.8000000000000127,7.800000000000013,-3.6999999999999873,-1.0,-4.0,4.0,5.699999999999987,9.0
281.0,5.529999999999974,2.0,5.470000000000026,-4.0,-2.235000000000013,7.235000000000013,-4.0,-1.0,-4.0,4.0,6.0,9.529999999999974
282.0,6.0,2.0,5.0,-4.0,-1.340000000000023,6.6700000000000115,-4.0,-1.0,-4.3299999999999885,4.0,6.0,10.0
283.0,6.0,2.0,4.210000000000041,-4.0,-1.0,6.10500000000002,-4.0,-1.0,-4.89499999999998,4.0,6.789999999999959,10.0
284.0,6.45999999999999,1.0800000000000205,3.0800000000000205,-4.0,-0.0800000000000205,5.54000000000001,-4.0,-1.0,-5.0,3.0800000000000205,7.0,10.45999999999999
285.0,7.0,1.0,2.475000000000026,-4.0,0.0,4.950000000000052,-4.0,-1.0,-5.0,3.0,7.049999999999948,11.0
286.0,7.0,1.0,1.8200000000000296,-4.0,0.08999999999998523,4.0,-4.0,-1.0,-5.0,3.0,8.0,11.0
287.0,7.309999999999951,1.0,0.8450000000000244,-4.0,0.6549999999999756,3.8450000000000246,-4.0,-1.0,-5.0,3.0,8.0,11.0
288.0,8.0,1.0,0.2800000000000077,-4.0,1.2199999999999922,3.280000000000008,-4.0,-1.0,-5.0,3.0,8.0,11.439999999999985
289.0,8.0,1.0,0.0,-4.0,1.7849999999999908,3.0,-4.0,-1.0,-5.0,2.4300000000000184,8.56999999999998,12.0
290.0,8.0,1.0,0.0,-4.0,2.0,2.3000000000000127,-4.0,-1.0,-5.0,2.0,9.0,12.0
291.0,8.0,1.0,-0.4149999999999836,-4.0,2.4149999999999836,2.0,-4.0,-1.0,-5.0,2.0,9.0,12.0
292.0,8.0,1.0,-0.9799999999999949,-4.0,2.979999999999995,1.5200000000000051,-4.0,-1.0,-5.0,2.0,9.0,12.0
293.0,8.0,1.0,-2.0,-4.0,3.089999999999959,1.0,-4.0,-1.0,-5.0449999999999795,2.0,9.0,12.0
294.0,8.0,0.7800000000000218,-2.109999999999989,-4.0,4.0,1.0,-4.0,-1.0,-5.609999999999989,2.0,9.219999999999978,12.109999999999989
295.0,8.0,0.0,-2.6749999999999807,-4.0,4.0,1.0,-4.0,-1.0,-6.0,2.0,10.0,12.674999999999981
296.0,8.0,0.0,-3.0,-4.0,4.479999999999964,1.0,-4.479999999999964,-1.0,-6.0,1.760000000000018,10.0,13.0
297.0,8.0,0.0,-3.609999999999964,-4.0,5.0,1.0,-5.0,-1.0,-6.0,1.195000000000018,10.0,13.0
298.0,8.73999999999995,0.0,-4.0,-4.0,5.0,0.630000000000025,-5.0,-1.0,-6.0,1.0,10.0,13.0
299.0,9.0,0.0,-4.0,-4.0,5.0,0.06500000000001671,-5.0,-1.0,-6.0,1.0,10.0,13.0
300.0,9.0,0.0,-5.0,-4.0,6.0,0.0,-5.0,-1.0,-6.0,1.0,10.5,13.0
301.0,9.0,0.0,-5.0,-4.0,6.0,0.0,-5.0,-1.0,-6.0,1.0,11.0,13.0
302.0,9.0,0.0,-5.129999999999993,-4.0,6.0,-0.25999999999998585,-5.0,-1.0,-6.0,1.0,11.0,13.0
303.0,9.0,0.0,-5.694999999999986,-4.0,6.389999999999972,-1.0,-5.0,-1.0,-6.0,1.0,11.0,13.0
304.0,9.0,0.0,-6.0,-4.0,7.0,-1.0,-5.0,-1.0,-6.0,1.0,11.0,13.0
305.0,9.0,0.0,-6.0,-4.0,7.0,-1.0,-5.0,-1.0,-6.0,1.0,11.0,13.0
306.0,9.0,0.0,-6.389999999999979,-4.0,7.0,-1.0,-5.0,-1.0,-6.0,1.0,11.0,13.0
307.0,9.0,0.0,-6.9549999999999885,-4.0,7.0,-1.909999999999977,-5.0,-1.0,-6.0,1.0,11.0,13.0
308.0,9.0,0.0,-7.0,-4.0,7.519999999999973,-2.0,-5.0,-1.0,-6.0,0.48000000000002696,11.0,13.0
309.0,9.0,0.0,-7.0,-4.0,8.0,-2.0,-5.0,-1.0,-6.0,0.0,11.0,13.0
310.0,9.0,0.0,-7.0,-4.0,8.0,-2.0,-4.850000000000025,-1.0,-6.0,0.0,11.0,13.0
311.0,9.0,0.0,-7.429999999999982,-4.0,8.0,-2.0,-4.285000000000009,-1.0,-6.0,0.0,11.214999999999991,13.214999999999991
312.0,9.0,0.0,-8.0,-4.0,8.0,-2.0,-4.0,-1.0,-6.0,0.0,11.77999999999999,13.77999999999999
313.0,9.0,0.0,-8.0,-4.0,8.0,-2.0,-4.0,-1.0,-6.0,0.0,12.0,14.0
314.0,9.0,0.0,-8.0,-4.0,8.0,-2.819999999999965,-4.0,-1.0,-6.0,0.0,12.0,14.0
315.0,9.0,0.0,-8.0,-4.0,8.0,-3.0,-4.0,-1.0,-6.949999999999987,0.0,12.0,14.0
316.0,9.0,0.0,-8.0,-4.0,8.0,-3.0,-4.0,-1.0,-7.0,0.0,12.0,14.0
317.0,9.0,0.0,-8.104999999999988,-4.0,8.209999999999976,-3.0,-4.0,-1.0,-7.0,0.0,12.0,14.0
318.0,9.0,0.0,-8.669999999999979,-4.0,9.0,-3.0,-4.0,-1.0,-7.0,0.0,12.0,14.0
319.0,9.0,0.0,-9.0,-4.0,9.0,-3.0,-4.0,-1.0,-7.0,0.0,12.0,14.0
320.0,9.0,0.0,-9.0,-4.0,9.0,-3.0,-4.0,-1.0,-7.0,0.0,12.0,14.0
321.0,9.0,0.0,-9.0,-4.0,9.0,-3.0,-4.0,-1.0,-7.0,0.0,12.0,14.0
322.0,9.0,-0.859999999999964,-9.0,-4.0,9.0,-3.0,-4.0,-1.0,-7.0,0.0,12.0,14.0
323.0,9.0,-1.0,-9.0,-4.0,9.0,-3.0,-4.0,-1.0,-7.0,0.0,12.0,14.0
324.0,9.0,-1.0,-9.0,-4.0,9.0,-4.0,-4.0,-1.0,-6.0,0.0,12.0,14.0
325.0,9.0,-1.0,-9.0,-4.0,9.0,-4.0,-4.0,-1.0,-6.0,0.0,12.0,14.0
326.0,9.0,-1.0,-9.0,-4.0,9.0,-4.0,-4.0,-1.0,-6.0,0.0,12.0,14.0
327.0,9.0,-1.0,-9.0,-4.0,9.0,-4.0,-4.0,-1.0,-6.0,0.0,12.0,14.0
328.0,9.0,-1.0,-9.639999999999972,-4.0,9.0,-4.0,-4.0,-1.0,-6.0,0.0,12.0,14.0
329.0,9.0,-0.23000000000004428,-10.0,-4.0,9.0,-4.0,-4.0,-1.0,-6.0,0.0,12.0,14.0
330.0,9.0,0.0,-10.0,-4.0,9.0,-4.0,-4.0,-1.0,-6.0,0.0,12.0,14.0
331.0,9.0,0.0,-10.0,-4.0,9.0,-4.0,-4.0,-1.0,-6.0,0.0,12.0,14.0
332.0,9.0,0.0,-10.0,-4.0,9.0,-4.0,-4.0,-1.0,-6.0,0.0,12.0,14.0
333.0,9.0,0.0,-10.0,-4.0,9.0,-4.0,-4.0,-1.0,-6.0,0.0,12.0,14.0
334.0,9.0,0.0,-10.0,-4.0,9.0,-4.0,-4.0,-1.0,-6.0,0.0,12.0,14.0
335.0,9.0,0.0,-10.0,-4.0,9.0,-4.0,-4.0,-1.0,-6.0,0.0,12.0,14.0
336.0,9.0,0.0,-10.0,-4.0,9.0,-4.0,-4.0,-1.0,-6.0,0.0,12.0,14.0
337.0,9.0,0.0,-10.0,-4.0,9.0,-4.0,-4.0,-1.0,-6.0,0.0,12.0,14.0
338.0,9.0,0.0,-10.0,-4.0,9.0,-4.0,-4.0,-1.0,-6.0,0.0,12.0,14.0
339.0,9.0,0.0,-10.0,-4.0,9.0,-4.0,-4.0,-1.0,-6.0,0.0,12.0,14.0
340.0,9.0,0.0,-10.0,-4.0,9.0,-4.0,-4.0,-1.0,-6.0,0.0,12.0,14.0
341.0,9.0,0.0,-10.0,-4.0,9.0,-4.0,-4.0,-1.0,-6.0,0.0,12.0,14.0
342.0,9.0,0.0,-10.0,-4.0,9.0,-4.0,-4.0,-1.0,-6.0,0.0,12.0,14.0
343.0,9.0,0.0,-10.0,-4.0,9.0,-4.0,-4.0,-1.0,-6.0,0.0,12.0,14.0
344.0,9.0,0.0,-10.0,-4.0,9.0,-4.0,-4.0,-1.0,-6.0,0.0,12.0,14.0
345.0,9.0,0.0,-10.0,-4.0,9.0,-4.0,-4.0,-1.0,-6.0,0.0,12.0,14.0
346.0,9.0,0.0,-10.0,-4.0,9.0,-4.0,-4.0,-1.0,-6.0,0.0,12.0,14.0
347.0,9.0,0.0,-10.0,-4.0,9.0,-4.0,-4.0,-1.0,-5.445000000000018,0.0,12.0,14.0
348.0,9.0,0.0,-10.0,-4.0,9.0,-4.0,-4.0,-1.0,-5.0,0.0,12.0,14.0
349.0,9.0,0.0,-10.0,-4.0,9.0,-4.0,-4.0,-1.0,-5.0,0.0,12.0,14.0
350.0,9.0,0.0,-10.0,-4.0,9.0,-4.0,-4.0,-1.0,-5.0,0.0,12.0,14.0
351.0,9.0,0.0,-9.370000000000031,-4.0,9.0,-4.0,-4.0,-1.0,-5.0,0.0,12.0,14.0
352.0,9.0,0.0,-9.0,-4.0,9.0,-4.0,-4.0,-1.0,-5.0,0.0,12.0,14.0
353.0,9.0,0.0,-9.0,-4.0,9.0,-4.0,-4.0,-1.0,-5.0,0.0,12.0,14.0
354.0,9.0,0.0,-9.0,-4.0,9.0,-4.0,-4.0,-1.0,-5.0,0.0,12.0,14.0
355.0,9.0,0.0,-9.0,-4.0,9.0,-4.0,-4.0,-1.0,-5.0,0.0,12.0,14.0
356.0,9.0,0.0,-9.0,-4.0,9.0,-4.0,-4.0,-1.0,-5.279999999999943,0.0,12.0,14.0
357.0,9.0,0.0,-9.0,-4.0,9.0,-4.0,-4.0,-1.0,-6.0,0.0,12.0,14.0
358.0,9.0,0.0,-9.0,-4.0,9.0,-3.460000000000054,-4.0,-1.0,-5.730000000000027,0.0,12.0,14.0
359.0,9.0,0.0,-9.0,-4.0,9.0,-3.0,-4.0,-1.0,-5.16500000000001,0.0,12.0,14.0
360.0,9.0,0.0,-9.0,-4.0,9.0,-3.0,-4.0,-1.0,-5.0,0.0,12.39999999999998,14.0
361.0,9.0,0.0,-9.0,-4.0,9.0,-3.0,-4.0,-1.0,-5.0,0.0,12.964999999999991,14.0
362.0,9.0,0.0,-9.0,-4.0,9.0,-3.0,-4.0,-1.0,-5.0,0.0,13.0,14.0
363.0,9.0,0.0,-9.0,-4.0,9.0,-3.0,-4.0,-1.0,-5.0,0.0,13.0,14.0
364.0,9.0,0.0,-9.0,-4.0,9.0,-3.0,-4.0,-1.0,-5.0,0.0,13.0,14.0
365.0,9.0,0.0,-9.0,-4.0,9.0,-3.0,-4.0,-1.0,-5.0,0.0,13.0,14.0
366.0,9.0,0.0,-9.0,-4.0,9.0,-3.0,-4.0,-1.0,-5.0,0.0,13.0,14.0
367.0,9.0,0.0,-9.0,-4.0,9.0,-3.0,-4.0,-1.0,-5.0,0.0,13.0,14.0
368.0,9.0,0.0,-9.0,-4.0,9.0,-3.0,-4.0,-1.0,-5.0,0.0,13.0,14.0
369.0,9.0,0.0,-9.0,-4.0,9.0,-3.0,-4.0,-1.0,-5.96999999999993,0.0,13.0,14.0
370.0,9.0,0.0,-9.0,-4.0,9.0,-3.0,-4.0,-1.0,-6.0,0.0,13.0,14.0
371.0,9.0,0.0,-9.0,-4.0,9.0,-3.0,-4.0,-1.0,-5.88500000000001,0.0,13.0,14.0
372.0,9.0,0.0,-9.0,-4.0,9.0,-3.0,-4.0,-1.0,-5.320000000000018,0.0,13.0,14.0
373.0,9.0,0.0,-9.0,-4.0,9.0,-3.0,-4.0,-1.0,-5.0,0.0,13.0,14.0
374.0,9.0,0.0,-9.0,-4.0,9.0,-3.0,-4.0,-1.0,-5.0,0.0,13.0,14.0
375.0,9.0,0.0,-9.0,-4.0,9.0,-3.0,-4.0,-1.0,-5.0,0.0,13.0,14.0
376.0,9.0,0.0,-9.0,-4.0,9.0,-3.0,-4.0,-1.0,-5.439999999999984,0.0,13.0,14.0
377.0,9.0,0.0,-9.0,-4.0,9.0,-3.0,-4.0,-1.0,-6.0,0.0,13.0,14.0
378.0,9.0,0.0,-9.0,-4.0,9.0,-3.0,-4.0,-1.0,-6.0,0.0,13.0,14.0
379.0,9.0,0.0,-9.0,-4.0,9.0,-3.0,-4.0,-1.0,-5.8650000000000295,0.0,13.0,14.0
380.0,9.0,0.0,-9.0,-4.0,9.0,-3.0,-4.0,-1.0,-5.300000000000026,0.0,12.600000000000051,14.0
381.0,9.0,0.0,-9.0,-4.0,9.0,-3.0,-4.0,-1.0,-5.0,0.0,12.0,14.0
382.0,9.0,0.0,-9.0,-4.0,9.0,-3.0,-4.0,-1.0,-5.0,0.0,12.0,14.0
383.0,8.21000000000004,0.0,-9.0,-4.0,9.0,-3.0,-4.0,-1.0,-5.0,0.0,12.0,14.0
384.0,8.0,0.0,-9.0,-4.0,9.0,-3.0,-4.0,-1.0,-5.0,0.0,12.0,14.0
385.0,8.04999999999995,0.0,-9.0,-4.0,9.0,-3.0,-4.0,-1.0,-5.024999999999975,0.0,12.0,14.0
386.0,9.0,0.0,-9.0,-4.0,9.0,-3.0,-4.0,-1.0,-5.589999999999986,0.0,12.0,14.0
387.0,9.0,0.0,-9.0,-4.0,9.0,-3.0,-4.0,-0.8450000000000244,-6.0,0.0,12.0,14.0
388.0,9.0,0.0,-9.0,-4.0,9.0,-3.0,-4.0,-0.28000000000002184,-6.0,0.0,12.0,14.0
389.0,9.0,0.0,-9.0,-4.0,9.0,-3.0,-3.4300000000000463,0.0,-6.0,0.0,12.0,14.0
390.0,9.0,0.0,-9.0,-4.0,9.0,-3.0,-3.0,0.0,-6.0,0.0,12.0,14.0
391.0,9.0,0.0,-9.0,-4.0,9.0,-3.0,-3.0,0.0,-6.0,0.0,12.0,14.0
392.0,9.0,0.0,-9.0,-4.0,9.0,-3.0,-3.0,0.0,-6.0,0.0,12.0,14.0
393.0,9.0,0.0,-9.0,-4.0,9.0,-3.0,-3.5449999999999795,0.0,-6.0,0.0,12.0,14.0
394.0,9.0,0.0,-9.0,-4.0,9.0,-3.0,-4.0,0.0,-6.0,0.0,12.0,14.0
395.0,9.0,0.0,-9.0,-4.0,9.0,-3.0,-4.0,0.0,-6.0,0.0,12.0,14.0
396.0,9.0,0.0,-9.0,-4.0,9.0,-3.0,-4.0,0.0,-6.0,0.0,12.0,14.0
397.0,8.695000000000018,0.0,-9.0,-4.0,9.0,-3.0,-4.0,0.0,-6.0,0.0,12.0,14.0
398.0,8.130000000000026,0.0,-9.0,-4.0,9.0,-3.0,-4.0,0.0,-6.0,0.0,12.0,14.0
399.0,8.0,0.0,-9.0,-4.0,9.0,-3.0,-4.0,-0.8699999999999666,-6.0,0.0,12.0,14.0
400.0,8.0,0.0,-9.0,-4.0,9.0,-3.0,-4.0,-1.0,-6.0,0.0,12.0,14.0
401.0,8.12999999999996,0.0,-9.0,-4.0,9.0,-3.0,-4.0,-1.0,-6.0,0.0,12.0,14.0
402.0,9.0,0.0,-9.0,-4.0,9.0,-3.0,-4.0,-1.0,-6.0,0.0,12.0,14.0
403.0,9.0,0.0,-9.0,-4.0,9.0,-3.0,-4.0,-1.0,-6.194999999999974,0.0,12.0,14.0
404.0,9.0,0.0,-9.0,-4.0,9.0,-3.0,-4.0,-1.0,-6.7599999999999705,0.0,12.0,14.0
405.0,9.0,0.0,-9.0,-4.0,9.0,-3.0,-4.0,-1.0,-7.0,0.0,12.0,14.0
406.0,9.0,0.0,-9.0,-4.0,9.0,-3.0,-4.0,-1.0,-7.0,0.0,12.0,14.0
407.0,9.0,0.0,-9.0,-4.0,9.0,-3.0,-4.0,-1.0,-7.0,0.0,12.0,14.0
408.0,9.0,0.0,-9.0,-4.0,9.0,-3.0,-4.0,-1.0,-7.0,0.0,12.0,14.0
409.0,9.0,0.0,-9.0,-4.0,9.0,-3.0,-4.0,-1.0,-7.0,0.0,12.0,14.0
410.0,9.0,0.0,-9.0,-4.0,9.0,-3.0,-4.0,-1.0,-7.0,0.0,12.0,14.0
411.0,9.0,0.0,-9.0,-4.0,9.0,-3.0,-4.0,-1.0,-7.0,0.0,12.0,14.0
412.0,9.0,0.0,-9.0,-4.0,9.0,-3.0,-4.279999999999975,-1.0,-7.0,0.0,12.0,14.0
413.0,9.0,0.0,-9.0,-4.0,9.0,-3.0,-4.84499999999997,-1.0,-7.0,0.0,12.0,14.0
414.0,9.0,0.0,-9.0,-4.0,9.0,-3.0,-5.0,-1.0,-7.0,0.0,12.0,14.0
415.0,9.0,0.0,-9.0,-4.0,9.0,-3.0,-5.0,-1.0,-7.0,0.0,12.0,14.0
416.0,9.0,0.0,-9.0,-4.0,9.0,-3.5399999999999783,-5.0,-1.5399999999999783,-8.0,0.0,12.0,14.0
417.0,9.0,0.0,-9.0,-4.0,9.0,-4.0,-5.0,-2.0,-8.0,0.0,12.0,14.0
418.0,9.0,0.0,-9.0,-4.0,9.0,-4.0,-5.0,-2.0,-8.0,0.0,12.0,14.0
419.0,9.0,0.0,-9.0,-4.0,9.0,-4.0,-5.0,-2.0,-8.0,0.0,12.0,14.0
420.0,9.0,0.0,-9.0,-4.0,9.0,-4.0,-5.0,-2.0,-8.0,0.0,12.0,14.0
421.0,9.0,-0.729999999999948,-9.0,-4.0,9.0,-4.0,-5.0,-2.0,-8.0,0.0,12.0,14.0
422.0,9.0,-1.0,-9.0,-4.0,9.0,-4.0,-5.0,-2.0,-8.0,0.0,12.0,14.0
423.0,9.0,-1.0,-9.0,-4.0,9.0,-4.0,-5.0,-2.0,-8.0,0.0,12.0,14.0
424.0,9.0,0.0,-9.0,-4.0,9.0,-4.0,-5.0,-2.0,-8.119999999999958,0.0,12.0,14.0
425.0,9.0,0.0,-9.0,-4.0,9.0,-4.0,-5.0,-2.0,-9.0,0.0,12.0,14.0
426.0,9.0,0.0,-9.0,-4.0,9.0,-4.0,-5.0,-2.0,-9.0,0.0,12.0,14.0
427.0,9.0,0.0,-9.0,-4.0,9.0,-4.0,-5.0,-2.0,-9.0,0.0,12.0,14.0
428.0,9.0,0.0,-9.0,-4.0,9.0,-4.0,-5.0,-2.0,-9.0,0.0,12.0,14.0
429.0,9.0,0.0,-9.0,-4.0,9.0,-4.0,-5.0,-2.0,-9.0,0.0,12.0,14.0
430.0,9.0,0.0,-9.0,-4.0,9.0,-4.0,-5.0,-2.0,-9.449999999999987,0.0,12.0,14.0
431.0,9.0,0.0,-9.0,-4.0,9.0,-4.0,-5.029999999999943,-3.0,-10.0,0.0,12.0,14.0
432.0,9.0,0.0,-9.0,-4.0,9.0,-4.0,-6.0,-3.0,-10.0,0.0,12.0,14.0
433.0,9.0,0.0,-9.0,-4.0,9.0,-4.0,-6.0,-3.0,-10.0,0.0,12.0,14.0
434.0,9.209999999999976,0.0,-9.0,-4.0,9.0,-4.0,-6.0,-3.0,-10.0,0.0,12.0,14.0
435.0,9.225000000000026,0.0,-9.274999999999974,-4.0,9.0,-4.0,-6.0,-3.0,-10.274999999999974,0.0,12.0,14.0
436.0,9.0,0.0,-9.83999999999997,-4.0,9.0,-4.0,-6.0,-3.0,-10.83999999999997,-0.33999999999996916,12.0,14.0
437.0,9.0,0.0,-10.0,-4.0,9.0,-4.0,-6.0,-3.0,-11.0,-0.9049999999999756,12.0,14.0
438.0,9.0,0.0,-10.0,-4.0,9.0,-4.0,-6.0,-3.0,-11.0,-1.0,12.0,14.0
439.0,9.0,0.0,-10.0,-4.0,9.0,-4.0,-6.0,-3.0,-11.0,-1.0,12.0,14.069999999999954
440.0,9.199999999999974,0.0,-10.0,-4.0,9.0,-4.0,-6.0,-3.0,-11.199999999999974,-1.0,12.0,15.0
441.0,10.0,0.0,-10.0,-4.0,9.0,-4.0,-6.0,-3.0,-12.0,-1.0,12.0,15.0
442.0,10.0,0.0,-10.0,-4.0,9.0,-4.0,-6.0,-3.0,-12.0,-1.0,12.0,15.0
443.0,9.705000000000021,0.0,-10.0,-4.0,9.0,-4.0,-6.0,-3.589999999999959,-12.0,-1.0,12.0,15.0
444.0,9.140000000000027,0.0,-10.0,-4.0,9.0,-4.0,-6.0,-4.0,-12.0,-1.0,12.0,15.0
445.0,9.849999999999962,0.0,-10.0,-4.0,9.0,-4.0,-6.8499999999999615,-4.0,-12.849999999999962,-1.0,12.0,15.0
446.0,10.0,0.0,-10.0,-4.0,9.0,-4.0,-7.0,-4.0,-13.0,-1.0,12.0,15.0
447.0,10.0,0.0,-10.0,-4.0,9.0,-4.0,-7.0,-4.0,-13.0,-1.0,12.0,15.0
448.0,10.0,0.0,-10.0,-4.0,9.0,-4.0,-7.0,-4.0,-13.0,-1.2399999999999332,12.0,15.0
449.0,10.0,0.0,-10.0,-4.0,9.0,-4.0,-7.0,-4.0,-13.184999999999972,-2.0,12.0,15.0
450.0,10.0,0.0,-10.0,-4.0,9.0,-4.0,-7.0,-4.0,-13.749999999999968,-2.0,12.0,15.0
451.0,10.0,0.0,-10.0,-4.0,9.0,-4.0,-7.0,-4.0,-14.0,-2.0,12.0,15.0
452.0,10.0,0.0,-10.0,-4.0,9.0,-4.0,-7.0,-4.0,-14.0,-2.0,12.0,15.0
453.0,10.0,0.0,-10.0,-4.0,9.0,-4.0,-7.0,-4.0,-14.0,-2.0,12.0,15.0
454.0,10.0,0.0,-10.0,-4.0,9.0,-4.0,-7.0,-4.0099999999999705,-15.0,-2.0,12.0,15.0
455.0,10.0,0.0,-10.0,-4.0,9.0,-4.0,-7.0,-4.574999999999982,-15.0,-2.0,12.0,15.0
456.0,10.0,0.0,-10.0,-4.0,9.0,-4.0,-7.279999999999943,-5.0,-15.0,-2.0,12.0,15.0
457.0,10.0,0.0,-10.0,-4.0,9.0,-4.0,-8.0,-5.0,-15.204999999999975,-2.0,12.0,15.0
458.0,10.0,0.0,-10.0,-4.0,9.0,-4.0,-8.0,-5.0,-15.769999999999973,-2.539999999999946,12.0,15.0
459.0,10.0,0.0,-10.0,-4.0,9.669999999999936,-4.0,-8.0,-5.0,-16.0,-3.0,12.0,15.0
460.0,10.0,0.0,-10.0,-4.0,10.0,-4.0,-8.0,-5.0,-16.0,-3.0,12.0,15.0
461.0,10.0,0.0,-10.0,-4.0,10.0,-4.0,-8.0,-5.0,-16.0,-3.0,12.0,15.0
462.0,10.0,0.0,-10.0,-4.0,10.0,-4.0,-8.0,-5.0,-16.529999999999976,-3.0,12.0,15.0
463.0,10.0,0.0,-10.0,-4.0,10.0,-4.0,-8.0,-5.0,-17.0,-3.0,12.0,15.0
464.0,10.0,0.0,-10.0,-4.0,10.0,-4.0,-8.0,-5.0,-17.0,-3.0,12.0,15.0
465.0,10.0,0.0,-10.0,-4.0,10.0,-4.0,-8.0,-5.0,-17.0,-3.0,12.0,15.0
466.0,10.0,0.0,-10.0,-4.0,10.0,-4.0,-8.0,-5.0,-17.289999999999978,-3.2899999999999783,12.0,15.0
467.0,10.0,0.0,-10.0,-4.0,10.0,-4.0,-8.0,-5.0,-17.854999999999972,-3.854999999999972,12.0,15.0
468.0,10.0,0.0,-10.0,-4.0,10.0,-4.0,-8.0,-5.0,-18.0,-4.0,12.0,15.0
469.0,10.0,0.0,-10.0,-4.0,10.0,-4.0,-8.0,-5.0,-18.0,-4.0,12.0,15.0
470.0,10.0,0.0,-10.0,-4.0,10.0,-4.0,-8.0,-5.549999999999978,-18.049999999999976,-4.0,12.0,15.0
471.0,10.0,0.0,-10.0,-4.0,10.0,-4.0,-8.0,-6.0,-18.614999999999966,-4.0,12.0,15.0
472.0,10.0,0.0,-10.0,-4.0,10.0,-4.0,-8.0,-6.0,-19.0,-4.0,12.0,15.0
473.0,10.0,0.0,-10.0,-4.0,10.0,-4.0,-8.489999999999933,-6.0,-19.0,-4.0,12.0,15.0
474.0,10.0,0.0,-10.0,-4.0,10.0,-4.0,-9.0,-6.0,-19.0,-4.309999999999984,12.0,15.0
475.0,10.0,0.0,-10.0,-4.0,10.0,-4.0,-9.0,-6.0,-19.0,-4.874999999999976,12.0,15.0
476.0,10.0,0.0,-10.0,-4.0,10.0,-4.0,-9.0,-6.0,-19.0,-5.0,12.0,15.0
477.0,10.0,0.0,-10.0,-4.0,10.0,-4.0,-9.0,-6.0,-19.0,-5.0,12.0,15.0
478.0,10.0,0.0,-10.0,-4.0,10.0,-4.0,-9.0,-6.0,-19.0,-5.0,12.0,15.0
479.0,10.0,0.0,-10.0,-4.0,10.0,-4.0,-9.0,-6.0,-19.0,-5.0,12.0,15.0
480.0,10.0,0.0,-10.0,-4.0,10.0,-4.0,-9.0,-6.0,-19.0,-5.0,12.0,15.0
481.0,10.0,0.0,-10.0,-4.0,10.0,-4.0,-9.0,-6.0,-19.529999999999944,-5.0,12.0,15.0
482.0,10.0,0.0,-10.0,-4.0,10.0,-4.0,-9.0,-6.0,-20.0,-5.0,12.0,15.0
483.0,10.0,0.0,-10.0,-4.0,10.0,-4.0,-9.0,-6.0,-20.0,-5.789999999999946,12.0,15.0
484.0,10.0,-0.9199999999999203,-10.0,-4.0,10.0,-4.0,-9.0,-6.0,-20.0,-6.0,12.0,15.0
485.0,10.0,-1.0,-10.0,-4.0,10.0,-4.0,-9.0,-6.0,-20.0,-6.0,12.0,15.0
486.0,10.0,-1.0,-10.0,-4.0,10.0,-4.0,-9.0,-6.0,-20.0,-6.0,12.0,15.0
487.0,10.0,-1.0,-10.0,-4.0,10.0,-4.0,-9.0,-6.0,-20.0,-6.0,11.69000000000005,15.0
488.0,10.0,-1.0,-10.0,-4.0,10.0,-4.0,-9.0,-6.0,-20.0,-6.0,11.0,15.0
489.0,10.0,-1.0,-10.0,-4.0,10.0,-4.0,-9.0,-6.0,-20.0,-6.0,11.0,15.0
490.0,10.0,-1.0,-10.0,-4.0,10.0,-4.0,-9.0,-6.0,-20.0,-6.0,11.0,15.0
491.0,10.0,-1.0,-10.0,-4.0,10.0,-4.0,-9.0,-6.0,-20.0,-6.0,11.0,15.0
492.0,10.0,-1.0,-10.0,-4.0,10.0,-4.0,-9.0,-6.0,-20.0,-6.959999999999928,11.0,15.0
493.0,10.0,-1.0,-10.0,-4.0,10.0,-4.089999999999953,-8.910000000000046,-6.0,-20.0,-7.0,11.0,15.0
494.0,10.0,-1.0,-10.219999999999928,-4.0,10.0,-5.0,-8.0,-6.0,-20.0,-7.0,11.0,15.0
495.0,10.0,-1.0,-11.0,-4.0,10.0,-5.0,-8.0,-6.0,-20.0,-7.0,11.0,14.65000000000006
496.0,9.520000000000069,-1.0,-11.0,-4.0,10.0,-5.0,-8.0,-6.0,-20.0,-7.0,11.0,14.0
497.0,9.0,-1.0,-11.0,-4.0,10.0,-5.0,-8.0,-6.0,-20.0,-7.0,11.0,14.0
498.0,9.0,-1.0,-11.0,-4.0,10.0,-5.0,-8.0,-6.0,-20.0,-7.0,11.0,14.0
499.0,9.0,-1.0,-11.0,-4.0,10.0,-5.0,-8.0,-5.130000000000034,-20.0,-7.0,11.0,14.0
500.0,9.0,-1.0,-11.0,-4.0,10.0,-5.0,-8.0,-5.0,-20.0,-7.0,10.000000000000064,14.0
501.0,9.0,-1.0,-10.0,-4.0,10.0,-5.0,-8.0,-5.0,-19.43500000000002,-7.0,10.0,13.93500000000002
502.0,9.0,-1.0,-10.0,-4.0,10.0,-5.0,-8.0,-5.0,-19.0,-7.129999999999969,10.0,13.370000000000031
503.0,9.0,-1.0,-10.0,-4.0,10.0,-5.0,-8.0,-5.0,-19.0,-7.694999999999974,10.0,13.0
504.0,9.0,-1.0,-10.0,-4.0,10.0,-5.0,-7.7400000000000295,-5.0,-19.0,-8.0,10.0,13.0
505.0,9.0,-1.0,-10.0,-3.3500000000000676,10.0,-5.0,-7.175000000000034,-5.0,-18.35000000000007,-8.0,10.0,13.0
506.0,9.0,-1.0,-10.0,-3.0,10.0,-5.0,-7.0,-5.0,-18.0,-8.0,10.0,13.0
507.0,8.090000000000082,-1.0,-10.0,-3.0,9.090000000000082,-5.0,-7.0,-5.0,-18.0,-8.0,10.0,13.0
508.0,8.0,-1.019999999999973,-10.0,-3.0,9.0,-5.0,-7.0,-4.960000000000054,-17.480000000000025,-8.0,9.480000000000027,12.480000000000027
509.0,8.0,-1.5849999999999842,-10.0,-3.0,9.0,-5.0,-6.915000000000016,-4.0,-17.0,-8.0,9.0,12.0
510.0,8.0,-2.0,-10.0,-3.0,9.0,-5.0,-6.350000000000025,-4.0,-17.0,-8.0,9.0,12.0
511.0,8.0,-2.0,-10.0,-3.0,9.0,-5.0,-6.0,-4.0,-17.0,-8.0,9.0,12.0
512.0,7.440000000000085,-2.0,-10.0,-3.0,9.0,-5.0,-6.0,-4.0,-16.440000000000083,-8.0,9.0,11.720000000000041
513.0,7.0,-2.0,-10.0,-3.0,9.0,-5.0,-6.0,-4.0,-16.0,-8.0,9.0,11.15500000000004
514.0,7.0,-2.0,-10.0,-3.0,9.0,-5.0,-5.590000000000023,-4.0,-16.0,-8.0,8.180000000000046,11.0
515.0,7.0,-2.0,-10.0,-3.0,9.0,-5.0,-5.025000000000007,-4.0,-15.050000000000013,-8.0,8.0,11.0
516.0,6.460000000000054,-2.0,-9.960000000000054,-2.920000000000108,8.920000000000108,-5.0,-5.0,-3.960000000000054,-15.0,-8.0,8.0,10.460000000000054
517.0,6.0,-2.1049999999999627,-9.395000000000037,-2.0,8.0,-5.0,-4.895000000000037,-3.3950000000000373,-14.895000000000037,-8.0,8.0,10.0
518.0,6.0,-2.6699999999999795,-9.0,-2.0,8.0,-5.0,-4.3300000000000205,-3.0,-14.330000000000021,-8.0,8.0,10.0
519.0,5.530000000000007,-3.0,-9.0,-2.0,8.0,-5.0,-4.0,-3.0,-14.0,-8.0,7.530000000000007,9.765000000000004
520.0,5.0,-3.0,-9.0,-2.0,8.0,-5.0,-4.0,-3.0,-13.700000000000026,-8.0,7.0,9.200000000000026
521.0,5.0,-3.0,-9.0,-2.0,8.0,-5.0,-3.2700000000000693,-2.635000000000035,-13.135000000000035,-8.0,7.0,9.0
522.0,5.0,-3.0,-9.0,-2.0,8.0,-5.0,-3.0,-2.070000000000018,-13.0,-8.0,7.0,8.570000000000018
523.0,5.0,-3.0,-9.0,-2.0,8.0,-5.0,-3.0,-2.0,-12.010000000000003,-8.0,6.0100000000000025,8.005
524.0,4.0,-3.559999999999951,-9.0,-1.0,7.440000000000049,-5.0,-2.8800000000000976,-1.9400000000000488,-12.0,-8.0,6.0,8.0
525.0,4.0,-4.0,-9.0,-1.0,7.0,-5.0,-2.0,-1.3750000000000322,-11.750000000000064,-8.0,6.0,7.750000000000064
526.0,4.0,-4.0,-9.0,-1.0,7.0,-5.0,-2.0,-1.0,-11.0,-8.0,6.0,7.0
527.0,4.0,-4.0,-9.0,-1.0,7.0,-5.0,-1.7450000000000314,-1.0,-10.745000000000031,-8.0,5.490000000000063,7.0
528.0,4.0,-4.0,-9.0,-1.0,7.0,-5.0,-1.1800000000000463,-1.0,-10.180000000000046,-8.0,5.0,6.360000000000093
529.0,3.6150000000000295,-4.0,-8.61500000000003,-1.0,7.0,-5.0,-1.0,-1.0,-10.0,-8.0,5.0,6.0
530.0,3.0500000000000127,-4.0,-8.050000000000013,-0.10000000000002562,7.0,-5.0,-1.0,-0.10000000000002562,-9.100000000000026,-8.0,5.0,6.0
531.0,3.0,-4.0,-8.0,0.0,6.969999999999996,-5.0,-0.9849999999999981,0.0,-9.0,-8.0,4.0,5.0
532.0,3.0,-4.0,-8.0,0.0,6.0,-5.0,-0.42000000000004367,0.0,-8.840000000000087,-8.0,4.0,5.0
533.0,3.0,-4.0,-8.0,0.0,6.0,-5.0,0.0,0.0,-8.0,-8.0,4.0,4.855000000000027
534.0,3.0,-4.4199999999999795,-8.0,0.0,6.0,-5.0,0.0,0.0,-7.5800000000000205,-8.0,4.0,4.290000000000011
535.0,2.450000000000058,-5.0,-8.0,0.0,6.0,-5.0,0.0,0.0,-7.0,-7.450000000000058,3.450000000000058,4.0
536.0,2.0,-5.0,-8.0,0.0,6.0,-5.0,0.0,0.0,-7.0,-7.0,3.0,4.0
537.0,2.0,-5.0,-8.0,0.0,6.0,-5.0,0.0,0.0,-6.190000000000049,-7.0,3.0,3.190000000000049
538.0,2.0,-5.0,-8.0,0.0,6.0,-5.0,0.0,0.0,-6.0,-7.0,3.0,3.0
539.0,2.0,-5.0,-7.965000000000055,0.0,5.465000000000055,-5.0,0.0,0.0,-5.930000000000111,-7.0,2.4650000000000554,3.0
540.0,1.800000000000077,-4.9000000000000385,-7.4000000000000385,0.0,5.0,-5.0,0.0,0.0,-5.0,-7.0,2.0,2.9000000000000385
541.0,1.0,-4.335000000000022,-7.0,0.0,5.0,-5.0,0.0,0.0,-4.835000000000022,-7.0,2.0,2.3350000000000217
542.0,1.0,-4.0,-7.0,0.0,5.0,-4.54000000000001,0.0,0.0,-4.270000000000005,-7.0,2.0,2.0
543.0,1.0,-4.0,-7.0,0.0,5.0,-4.0,0.0,0.0,-4.0,-7.0,2.0,2.0
544.0,1.0,-4.0,-7.0,0.0,5.0,-4.0,0.719999999999928,0.0,-4.0,-6.280000000000072,1.280000000000072,2.0
545.0,1.0,-4.0,-7.0,0.0,4.1500000000000385,-4.0,1.0,0.4249999999999807,-3.1500000000000385,-6.0,1.0,1.5750000000000193
546.0,1.0,-4.0,-6.020000000000005,0.0,4.0,-4.0,1.0,0.9899999999999974,-3.0,-6.0,1.0,1.0100000000000025
547.0,1.0,-4.0,-6.0,0.0,4.0,-4.0,1.0,1.0,-2.94500000000005,-6.0,1.0,1.0
548.0,0.8800000000000334,-3.760000000000067,-6.0,0.0,4.0,-4.0,1.0,1.0,-2.380000000000033,-6.0,0.8800000000000334,1.0
549.0,0.3150000000000167,-3.0,-6.0,0.18499999999998332,4.0,-4.0,1.0,1.0,-2.0,-6.0,0.3150000000000167,0.8150000000000167
550.0,0.0,-3.0,-6.0,0.7499999999999679,4.0,-4.0,1.0,1.0,-2.0,-5.500000000000064,0.0,0.2500000000000321
551.0,0.0,-3.0,-5.685000000000048,1.0,3.370000000000095,-3.6850000000000476,1.0,1.0,-2.0,-5.0,0.0,0.0
552.0,0.0,-3.0,-5.120000000000031,1.0,3.0,-3.1200000000000307,1.0,1.0,-1.6200000000000307,-5.0,0.0,0.0
553.0,0.0,-3.0,-5.0,1.0,3.0,-3.0,1.0,1.0,-1.0550000000000141,-5.0,0.0,0.0
554.0,0.0,-3.0,-5.0,1.0,3.0,-3.0,1.0,1.0,-1.0,-5.0,0.0,0.0
555.0,0.0,-3.0,-5.0,1.0,3.0,-3.0,1.0,1.0,-1.0,-5.0,0.0,0.0
556.0,0.0,-3.0,-4.860000000000028,1.0,3.0,-3.0,1.0,1.0,-1.0,-5.0,0.0,0.0
557.0,0.0,-3.0,-4.2950000000000115,1.0,2.590000000000023,-3.0,1.4099999999999768,1.0,-1.0,-4.590000000000023,0.0,0.0
558.0,0.0,-3.0,-4.0,1.0,2.0,-3.0,2.0,1.0,-1.0,-4.0,0.0,0.0
559.0,0.0,-3.0,-4.0,1.0,2.0,-3.0,2.0,1.0,-1.0,-4.0,0.0,0.0
560.0,0.0,-3.0,-4.0,1.0,2.0,-3.0,2.0,1.0,-1.0,-4.0,0.0,0.0
561.0,0.0,-3.0,-4.0,1.0,2.0,-2.535000000000009,2.0,1.0,-1.0,-4.0,0.0,0.0
562.0,0.0,-3.0,-4.0,1.0,2.0,-2.0,2.0,1.0,-0.9400000000001131,-4.0,0.0,0.0
563.0,0.0,-3.0,-4.0,1.0,2.0,-2.0,2.0,1.0,0.0,-4.0,-0.18999999999992034,0.0
564.0,0.0,-3.0,-3.6800000000000463,1.0,2.0,-2.0,2.0,1.0,0.0,-3.6800000000000463,-1.0,0.0
565.0,0.0,-3.0,-3.0,1.0,2.0,-2.0,2.0,1.0,0.0,-3.0,-1.0,0.0
566.0,0.0,-3.0,-3.0,1.0,1.710000000000027,-2.0,2.0,1.579999999999946,0.0,-3.0,-1.0,-0.579999999999946
567.0,0.0,-3.0,-3.0,1.0,1.1450000000000373,-2.0,2.0,2.0,0.35499999999996273,-3.0,-1.0,-1.0
568.0,0.0,-3.0,-3.0,1.0,1.0,-2.0,2.0,2.0,0.9199999999999795,-3.0,-1.0,-1.0
569.0,0.0,-3.0,-3.0,1.0,1.0,-2.0,2.0,2.0,1.0,-3.0,-1.0,-1.0
570.0,0.0,-3.0,-3.0,1.0,1.0,-2.0,2.0,2.0,1.0,-3.0,-1.0,-1.0
571.0,0.0,-3.0,-3.0,1.0,1.0,-2.0,2.0,2.0,1.0,-2.885000000000035,-1.0,-1.0
572.0,0.0,-3.0,-3.0,1.0,1.0,-2.0,2.0,2.0,1.0,-2.320000000000018,-1.0,-1.0
573.0,0.0,-3.0,-3.0,1.0,1.0,-2.0,2.0,2.0,1.0,-2.0,-1.0,-1.0
574.0,0.0,-3.0,-2.3800000000000976,1.0,1.0,-2.0,2.0,2.0,1.0,-2.0,-1.0,-1.0
575.0,0.0,-3.0,-2.0,1.0,1.0,-2.0,2.0,2.0,1.0,-2.0,-1.0,-1.0
576.0,0.0,-3.0,-2.0,1.0,1.0,-1.5600000000000154,2.0,2.0,1.0,-2.0,-1.0,-1.0
577.0,0.0,-3.0,-2.0,1.0,1.0,-1.0,2.0,2.0,1.0,-2.0,-1.0050000000000006,-1.0
578.0,0.0,-3.0,-2.0,1.0,1.0,-1.0,2.0,2.0,1.0,-2.0,-1.5699999999999537,-1.0699999999999537
579.0,0.0,-2.730000000000059,-2.0,1.0,1.0,-1.0,2.0,2.0,1.0,-2.0,-2.0,-1.6349999999999705
580.0,0.0,-2.0,-2.0,1.0,0.6000000000000256,-1.0,2.0,2.0,1.199999999999987,-2.0,-2.0,-2.0
581.0,0.0,-2.0,-2.0,1.0,0.0,-1.0,2.0,2.0,1.76499999999997,-2.0,-2.0,-2.0
582.0,0.0,-2.0,-2.0,1.0,0.0,-1.0,2.0,2.0,2.0,-1.3400000000000873,-2.0,-2.0
583.0,0.0,-2.0,-2.0,1.0,0.0,-1.0,2.0,2.0,2.0,-1.0,-2.0,-2.0
584.0,0.0,-2.0,-2.0,1.0,0.0,-1.0,2.0,2.0,2.0,-1.0,-2.0,-2.0
585.0,0.0,-2.0,-2.0,1.0,0.0,-1.0,2.0,2.0,2.0,-1.0,-2.0,-2.0
586.0,0.0,-2.0,-2.0,1.0,0.0,-1.0,2.0,2.0,2.0,-1.0,-2.0,-2.0
587.0,0.0,-2.0,-2.0,1.0,0.0,-1.0,2.0,2.0,2.0,-1.0,-2.0,-2.0
588.0,0.0,-2.0,-1.5600000000000154,1.0,0.0,-1.0,2.0,2.0,2.0,-1.0,-2.0,-2.0
589.0,0.0,-2.0,-1.0,1.0,0.0,-1.0,2.0,2.0,2.0,-1.0,-2.0,-2.0
590.0,0.0,-2.0,-1.0,1.0,0.0,-1.0,2.0,2.0,2.0,-1.0,-2.0,-2.0
591.0,0.0,-2.0,-1.0,1.0,0.0,-1.0,2.0,2.0,2.0,-1.0,-2.0,-2.0
592.0,0.0,-2.0,-1.0,1.0,0.0,-1.0,2.0,2.0,2.0,-1.0,-2.0,-2.0
593.0,0.0,-2.0,-1.0,1.0,0.0,-1.0,2.0,2.0,2.0,-1.0,-2.0,-2.0
594.0,0.0,-2.0,-1.0,1.0,0.0,-1.0,2.0,2.0,2.0,-0.780000000000072,-2.0,-2.0
595.0,0.0,-2.0,-1.0,1.0,0.0,-0.6500000000000385,2.0,2.0,2.0,0.0,-2.0,-2.0
596.0,0.0,-2.0,-1.0,1.0,0.0,0.0,2.0,2.0,2.0,0.0,-2.0,-2.0
597.0,-0.3049999999999499,-2.0,-1.0,1.0,0.0,0.0,2.0,2.0,2.0,0.0,-2.0,-2.0
598.0,-0.8699999999999666,-2.0,-1.0,1.0,0.0,0.0,2.0,2.0,2.0,0.0,-2.0,-2.0
599.0,-1.0,-2.0,-1.0,1.0,0.0,0.0,2.0,2.0,2.0,0.0,-2.0,-2.0
600.0,-1.0,-2.0,-1.0,1.0,0.0,0.0,2.0,2.0,2.0,0.0,-2.0,-2.0
601.0,-1.0,-2.0,-1.0,1.0,0.0,0.0,2.0,2.0,2.0,0.0,-2.0,-2.0
602.0,-1.0,-2.0,-1.0,1.0,0.0,0.0,2.1299999999999693,2.0,2.0,0.0,-2.0,-2.0
603.0,-1.0,-2.0,-1.0,1.0,0.0,0.0,2.694999999999986,2.0,2.0,0.0,-2.0,-2.0
604.0,-1.0,-2.0,-1.0,1.0,0.0,0.0,3.0,2.0,2.0,0.0,-2.0,-2.0
605.0,-1.0,-2.0,-1.0,1.0,0.0,0.0,3.0,2.0,2.324999999999955,0.0,-2.0,-2.0
606.0,-1.0,-2.0,-1.0,1.0,0.0,0.0,3.0,2.0,2.8899999999999717,0.0,-2.0,-2.0
607.0,-1.0,-2.0,-1.0,1.0,0.0,0.0,3.0,2.0,3.0,0.0,-2.0,-2.0
608.0,-1.0,-2.0,-0.980000000000059,1.0,0.0,0.0,3.0,2.0,3.0,0.0,-2.0,-2.0
609.0,-1.0,-2.0,-0.4150000000000424,1.0,0.0,0.0,3.0,2.0,3.0,0.0,-2.0,-2.0
610.0,-1.0,-2.0,0.0,1.0,0.0,0.0,3.0,2.0,3.0,0.0,-2.0,-2.0
611.0,-1.0,-2.0,0.0,1.0,0.0,0.0,3.0,2.0,3.0,0.0,-2.0,-2.0
612.0,-1.0,-2.0,0.0,1.0,0.0,0.0,3.0,2.0,3.0,0.0,-2.0,-2.0
613.0,-1.0,-2.0,0.0,1.0,0.0,0.0,3.0,2.0,3.0,0.0,-2.0,-2.0
614.0,-1.0,-2.0,0.0,1.0,0.0,0.0,3.0,2.0,3.0,0.0,-2.0,-2.0
615.0,-1.0,-2.0,0.0,1.0,0.0,0.0,3.0,2.0,3.0,0.0,-2.0,-2.0
616.0,-1.0,-2.0,0.0,1.0,0.0,0.0,3.0,2.0,3.0,0.0,-2.0,-2.0
617.0,-1.0,-2.0,0.0,1.0,0.0,0.0,3.0,2.0,3.0,0.0,-2.0,-2.0
618.0,-1.0,-2.0,0.0,1.0,0.0,0.0,3.0,2.0,3.0,0.0,-2.0,-2.0
619.0,-1.0,-2.0,0.0,1.0,0.0,0.0,3.0,2.0,3.0,0.0,-2.0,-2.0
620.0,-1.0,-2.0,0.0,1.0,0.0,0.0,3.0,2.0,3.0,0.0,-2.0,-2.0
621.0,-1.0,-2.0,0.0,1.0,0.0,0.0,3.0,2.0,3.0,0.0,-2.0,-2.0
622.0,-1.0,-2.0,0.0,1.0,0.0,0.0,3.0,2.0,3.0,0.0,-2.0,-2.0
623.0,-1.0,-2.0,0.0,1.0,0.0,0.0,3.0,2.0,3.0,0.0,-2.0,-2.0
624.0,-1.0,-2.0,0.0,1.0,0.0,0.0,3.0,2.0,3.0,0.0,-2.0,-2.0
625.0,-1.0,-2.0,0.0,1.0,0.0,0.0,3.0,2.0,3.0,0.0,-2.0,-2.0
626.0,-1.0,-2.0,0.0,1.0,0.0,0.0,3.0,2.0,3.0,0.0,-2.0,-2.0
627.0,-1.0,-2.0,0.0,1.0,0.0,0.0,3.0,2.0,3.0,0.0,-2.0,-2.0
628.0,-1.0,-2.0,0.0,1.0,0.0,0.0,2.3600000000000927,2.0,3.0,0.0,-2.0,-2.0
629.0,-1.0,-2.0,0.0,1.0,0.0,0.0,2.0,2.0,3.0,0.0,-2.0,-2.0
630.0,-1.0,-2.0,0.0,1.0,0.0,0.0,2.0,2.0,3.0,0.0,-2.0,-2.0
631.0,-1.0,-2.0,0.0,1.0,0.0,0.0,2.0,2.0,3.0,0.0,-2.0,-2.0
632.0,-1.0,-2.0,0.0,1.0,0.0,0.0,2.0,2.0,3.0,0.0,-2.0,-2.0
633.0,-1.0,-2.0,0.0,1.0,0.0,0.0,2.0,2.0,3.0,0.0,-2.0,-2.0
634.0,-1.0,-2.0,0.0,1.0,0.0,0.0,2.0,2.0,3.0,0.0,-2.0,-2.0
635.0,-1.0,-2.0,0.0,1.0,0.0,0.0,2.0,2.0,3.0,0.0,-2.0,-2.0
636.0,-1.0,-2.0,0.0,1.0,0.0,0.0,2.0,2.0,3.0,0.0,-2.0,-2.0
637.0,-1.0,-2.0,0.0,1.0,0.0,0.0,2.0,2.0,3.0,0.0,-2.0,-2.0
638.0,-1.0,-2.0,0.0,1.0,0.0,0.0,2.0,2.0,3.0,0.0,-2.0,-2.0
639.0,-1.0,-2.0,0.0,1.0,0.0,0.0,2.0,2.0,3.0,0.0,-2.0,-2.0
640.0,-1.0,-2.0,0.0,1.0,0.0,0.0,2.0,2.0,3.0,0.0,-2.0,-2.0
641.0,-1.0,-2.0,0.0,1.0,0.0,0.0,2.0,2.0,3.0,0.0,-2.0,-2.0
642.0,-1.0,-2.0,0.0,1.0,0.0,0.0,2.0,2.0,3.0,0.0,-2.0,-2.0
643.0,-1.0,-2.0,0.0,1.0,0.0,0.0,2.0,2.0,3.0,0.0,-2.0,-2.0
644.0,-1.0,-1.640000000000036,0.0,1.0,0.0,0.0,2.0,2.0,3.0,0.0,-2.0,-2.0
645.0,-1.0,-1.0750000000000193,0.0,1.0,0.0,0.0,2.0,2.0,3.0,0.0,-2.0,-2.0
646.0,-1.0,-1.0,0.0,1.0,0.0,0.0,2.0,2.0,3.0,0.0,-2.0,-2.0
647.0,-1.0,-1.0,0.0,1.0,0.0,0.0,2.0,2.0,3.0,0.0,-2.0,-2.0
648.0,-1.0,-1.0,0.0,1.0,0.0,0.0,2.0,2.0,3.0,0.0,-2.0,-2.0
649.0,-1.0,-1.0,0.0,1.0,0.0,0.0,2.0,2.0,3.0,0.0,-2.0,-2.0
650.0,-1.0,-1.0,0.0,1.0,0.0,0.0,2.0,2.0,3.0,0.0,-2.0,-2.0
651.0,-1.0,-1.0,0.0,1.0,0.0,0.0,2.0,2.0,3.0,0.0,-2.0,-2.0
652.0,-1.0,-1.0,0.0,1.0,0.0,0.0,2.0,2.0,3.0,0.0,-2.0,-2.0
653.0,-1.0,-1.0,0.0,1.0,0.0,0.0,2.0,2.0,3.0,0.0,-2.0,-2.0
654.0,-1.0,-1.0,0.0,1.0,0.0,0.0,2.0,2.0,3.0,0.0,-2.0,-2.0
655.0,-1.0,-1.0,0.0,1.0,0.0,0.0,2.0,2.0,3.0,0.0,-2.0,-2.0
656.0,-1.2799999999999434,-1.0,0.0,1.0,0.0,0.0,2.0,2.0,3.0,0.0,-2.0,-2.0
657.0,-2.0,-1.0,0.0,1.0,0.0,0.0,2.0,2.0,3.0,0.0,-2.0,-2.0
658.0,-2.0,-1.0,0.0,1.0,0.0,0.0,2.0,2.0,3.0,0.0,-2.0,-2.0
659.0,-2.0,-1.0,0.0,1.0,0.0,0.6699999999999152,2.0,2.0,3.0,0.0,-2.0,-2.0
660.0,-1.2000000000000512,-1.0,0.0,1.0,0.0,1.0,2.0,2.0,3.0,0.0,-2.0,-2.0
661.0,-1.0,-1.0,0.0,1.0,0.0,0.07000000000001794,2.0,2.0,3.0,0.0,-2.0,-2.0
662.0,-1.0,-2.0,0.0,1.0,0.0,0.0,2.0,2.0,3.0,0.0,-2.0,-2.0
663.0,-1.0,-2.0,0.0,1.0,0.0,0.0,2.0,2.0,3.0,0.0,-2.0,-2.0
664.0,-1.0,-2.0,0.0,1.0,0.0,0.0,2.0,2.0,3.0,0.0,-2.0,-2.0
665.0,-1.0,-2.0,0.0,1.0,0.0,0.0,2.0,2.0,3.0,0.0,-2.0,-2.0
666.0,-1.0,-2.0,0.0,1.0,0.0,0.0,2.0,2.0,2.420000000000108,0.0,-2.0,-2.0
667.0,-1.0,-2.0,0.0,1.0,0.0,0.0,2.0,2.0,2.0,0.0,-2.0,-2.0
668.0,-1.0,-2.0,0.0,1.0,0.0,0.0,2.0,2.0,2.0,0.0,-2.0,-2.0
669.0,-1.0,-2.0,0.0,1.0,0.0,0.0,2.0,2.0,2.0,0.0,-2.0,-2.0
670.0,-1.0,-2.0,0.0,1.0,0.0,0.0,2.0,2.0,2.0,0.0,-2.0,-2.0
671.0,-1.0,-2.0,0.0,1.0,0.0,0.0,2.0,2.0,2.0,0.0,-2.0,-2.0
672.0,-1.0,-2.0,0.0,1.0,0.0,0.0,2.0,2.0,2.0,0.0,-2.0,-2.0
673.0,-1.0,-2.0,0.0,1.0,0.0,0.0,2.0,2.0,2.0,0.0,-2.0,-2.0
674.0,-1.0,-2.0,0.0,1.0,0.0,0.0,2.0,2.0,2.0,0.0,-2.0,-2.0
675.0,-1.0,-2.0,0.0,1.0,0.0,0.0,2.0,2.0,2.0,0.0,-2.0,-2.0
676.0,-1.0,-2.0,0.0,1.0,0.0,0.0,2.0,2.0,2.0,0.0,-2.0,-2.0
677.0,-1.0,-2.004999999999937,0.0,1.0,0.0,0.0,2.0,2.0,2.0,0.0,-2.0,-2.0
678.0,-1.0,-2.5699999999999537,0.0,1.1399999999999075,0.0,0.0,2.0,2.0,2.0,0.0,-2.0,-2.0
679.0,-1.0,-2.8650000000000295,0.0,2.0,0.0,0.0,2.0,1.730000000000059,2.0,0.0,-2.0,-2.0
680.0,-1.0,-2.3000000000000385,-0.19999999999996146,2.0,0.0,0.0,2.0,1.0,2.0,0.0,-2.0,-2.0
681.0,-1.0,-2.0,-0.7649999999999396,2.0,0.0,0.0,2.0,1.0,2.0,0.0,-2.0,-2.0
682.0,-1.0,-2.0,-1.0,2.0,0.0,0.0,2.0,1.0,1.3400000000000873,0.0,-2.0,-2.0
683.0,-1.0,-2.0,-1.0,2.0,0.0,0.0,2.0,1.0,1.0,0.0,-2.0,-2.0
684.0,-1.0,-2.0,-1.0,2.0,0.0,0.0,2.0,1.0,1.0,0.0,-2.0,-2.0
685.0,-1.0,-2.0,-1.0,2.0,0.0,0.0,2.0,1.0,1.0,0.0,-2.0,-2.0
686.0,-1.0,-2.0,-1.0,1.910000000000041,0.0,0.0,2.0,1.0,1.0,0.0,-2.0,-2.0
687.0,-1.0,-2.0,-1.0,1.3450000000000244,0.0,0.0,2.0,1.0,1.0,0.0,-2.0,-2.0
688.0,-1.0,-2.0,-1.0,1.0,0.0,0.0,2.0,1.0,1.0,0.0,-2.0,-2.0
689.0,-1.0,-2.0,-1.0,1.0,0.0,0.0,2.0,1.0,1.0,0.0,-2.0,-2.0
690.0,-1.0,-2.0,-1.0,1.0,0.0,0.0,2.0,1.0,1.0,0.0,-2.0,-2.0
691.0,-1.0,-2.0,-1.0,1.0,0.0,0.0,2.0,1.0,1.0,0.0,-2.0,-2.0
692.0,-1.0,-2.0,-1.0,1.0,0.0,0.0,2.0,1.0,1.0,0.0,-2.0,-2.0
693.0,-1.0,-2.0,-0.9100000000001054,1.0,0.0,0.0,2.0,1.0,1.0,0.0,-2.0,-2.0
694.0,-1.0,-2.0,0.0,1.0,0.0,0.0,2.0,1.0,1.0,0.0,-2.0,-2.0
695.0,-1.0,-2.0,0.0,1.0,0.0,0.0,2.0,1.0,1.0,0.0,-2.0,-2.0
696.0,-1.0,-2.0,0.0,1.0,0.0,0.0,2.0,1.0,1.0,0.0,-2.0,-2.0
697.0,-1.0,-2.0,0.0,1.0,0.0,0.0,2.0,1.0,1.0,0.0,-2.0,-1.3900000000001
698.0,-1.0,-2.0,0.0,1.0,0.0,0.0,2.0,1.0,1.0,0.0,-2.0,-1.0
699.0,-1.0,-2.0,0.0,1.0,0.0,0.0,2.0,1.0,1.0,0.0,-2.0,-1.0
700.0,-1.0,-2.0,0.0,1.0,0.0,0.0,2.0,1.0,1.0,0.0,-2.0,-1.0
701.0,-1.0,-2.0,0.0,1.0,0.0,0.0,2.0,1.0,1.0,0.0,-2.0,-1.0
702.0,-1.0,-2.0,0.0,1.0,0.0,0.0,2.0,1.0,1.0,0.0,-2.0,-1.0
703.0,-1.0,-2.0,0.0,1.0,0.0,0.0,2.0,1.0,1.0,0.0,-2.0,-1.0
704.0,-1.0,-2.0,0.0,1.0,0.0,0.0,2.0,1.0,1.0,0.0,-2.0,-1.0
705.0,-1.0,-2.0,0.0,1.0,0.0,0.0,2.0,1.0,1.0,0.0,-2.0,-1.0
706.0,-1.0,-2.0,0.0,1.0,0.0,0.0,2.0,1.0,1.0,0.0,-2.0,-1.0
707.0,-0.09000000000002306,-2.0,0.0,1.0,0.0,0.0,2.0,1.0,1.0,0.0,-2.0,-1.0
708.0,0.0,-2.0,0.0,1.0,0.0,0.0,2.0,1.0,0.0,0.0,-2.0,-1.0
709.0,0.0,-2.0,0.0,1.0,0.0,0.0,2.0,1.0,0.0,0.0,-2.0,-1.0
710.0,0.0,-2.0,0.0,1.0,0.0,0.0,2.0,1.0,0.0,0.0,-2.0,-1.0
711.0,0.0,-2.0,-0.4299999999999268,1.0,0.0,0.0,2.0,1.0,0.0,0.0,-2.0,-1.0
712.0,0.0,-2.0,-1.0,1.0,0.0,0.0,2.0,1.0,0.0,0.0,-2.0,-1.0
713.0,0.0,-2.0,-1.0,1.0,0.0,0.0,2.0,1.0,0.0,0.0,-2.0,-1.0
714.0,0.0,-2.0,-1.0,1.0,0.0,0.0,2.0,1.0,0.0,0.0,-2.0,-1.0
715.0,-0.47499999999993253,-2.0,-1.0,1.0,0.0,0.0,2.0,1.0,0.0,0.0,-2.0,-1.0
716.0,-1.0,-2.0,-1.0,1.0,0.0,0.0,2.0,1.0,0.0,0.0,-2.0,-1.0
717.0,-1.0,-2.0,-1.0,1.0,0.0,0.0,2.0,1.0,0.0,0.0,-2.0,-1.0
718.0,-1.0,-2.0,-1.0,1.0,0.0,0.0,2.0,1.0,0.0,0.0,-2.0,-1.0
719.0,-1.0,-2.0,-1.0,1.0,0.0,0.0,2.0,1.0,0.0,0.0,-2.0,-1.0
720.0,-1.0,-2.0,-1.0,1.0,0.0,0.0,2.0,1.0,0.0,0.0,-2.0,-1.0
721.0,-1.0,-2.0,-1.0,1.0,0.0,0.0,2.0,1.0,0.0,0.0,-2.0,-1.0
722.0,-1.0,-2.0,-1.0,1.0,0.0,0.0,2.0,1.0,0.0,0.0,-2.0,-1.0
723.0,-1.0,-2.0,-1.0,1.0,0.0,0.0,2.0,1.0,0.0,0.0,-2.0,-1.0
724.0,-1.0,-2.0,-1.0,1.0,0.0,0.0,2.0,1.0,0.0,0.0,-2.0,-1.0
725.0,-1.0,-2.0,-1.0,1.0,0.0,0.0,2.0,1.0,0.0,0.0,-2.0,-1.0
726.0,-0.6200000000000796,-2.0,-1.0,1.0,0.0,0.0,2.0,1.0,0.0,0.0,-2.0,-1.0
727.0,0.0,-2.0,-1.0,1.0,0.0,0.0,2.0,1.0,0.0,0.0,-2.0,-1.0
728.0,0.0,-2.0,-1.0,1.0,0.0,0.0,2.0,1.0,0.0,0.0,-2.0,-1.0
729.0,0.0,-2.0,-1.0,1.0,0.0,0.0,2.0,1.0,0.0,0.0,-2.0,-1.0
730.0,0.0,-2.0,-1.0,1.0,0.0,0.0,2.0,1.0,0.0,0.0,-2.0,-1.0
731.0,0.0,-1.9700000000001208,-1.0,1.0,0.0,0.0,2.0,1.0,0.0,0.0,-2.0,-1.0
732.0,0.0,-1.0,-1.0,1.0,0.0,0.0,2.0,1.0,0.0,0.0,-2.0,-1.0
733.0,0.0,-1.0,-1.0,1.0,0.0,0.0,2.0,1.0,0.144999999999973,0.0,-2.0,-1.0
734.0,0.0,-1.0,-1.0,1.0,0.0,0.0,2.0,1.0,0.7099999999999628,0.0,-2.0,-1.0
735.0,0.0,-1.0,-1.0,1.0,0.0,0.0,2.0,1.0,1.0,0.0,-2.0,-1.0
736.0,0.0,-1.0,-1.0,1.0,0.0,0.0,2.0,1.0,1.0,0.0,-2.0,-1.0
737.0,0.0,-1.0,-1.0,1.0,0.0,0.0,2.0,1.0,1.0,0.0,-2.0,-1.0
738.0,0.0,-1.0,-1.0,1.0,0.0,0.0,2.0,1.0,1.0,0.0,-2.0,-1.0
739.0,0.0,-1.0,-1.0,1.0,0.0,0.0,2.0,1.0,1.0,0.0,-2.0,-1.0
740.0,0.0,-1.0,-1.0,1.0,0.0,0.0,2.0,1.0,1.0,0.0,-2.0,-1.0
741.0,-0.16499999999997816,-1.0,-1.0,1.0,0.0,0.0,2.0,1.0,1.0,0.0,-2.0,-1.0
742.0,-0.7299999999999653,-1.0,-1.0,1.0,0.0,0.0,2.0,1.0,1.0,0.0,-2.0,-1.0
743.0,-1.0,-1.2949999999999473,-1.0,1.0,0.0,0.0,2.0,1.0,1.0,0.0,-2.0,-1.0
744.0,-1.0,-1.859999999999964,-1.0,1.0,0.0,0.0,2.0,1.0,1.0,0.0,-2.0,-1.0
745.0,-1.0,-1.5750000000000193,-0.5750000000000193,1.0,0.0,0.0,2.0,1.0,1.0,0.0,-2.0,-1.0
746.0,-1.0,-1.0100000000000655,-0.010000000000065512,1.0,0.0,0.0,2.0,1.0,1.0,0.0,-2.0,-1.0
747.0,-1.0,-1.0,0.0,1.0,0.0,0.0,2.0,1.0,1.0,0.0,-2.0,-1.0
748.0,-1.0,-1.2399999999999332,0.0,1.0,0.0,0.0,2.0,1.0,1.0,0.0,-2.0,-1.0
749.0,-1.0,-2.0,0.0,1.0,0.0,0.0,2.0,1.0,1.0,0.0,-2.0,-1.0
750.0,-1.0,-2.0,0.0,1.0,0.0,0.0,2.0,1.0,1.0,0.0,-2.0,-1.0
751.0,-1.0,-1.6850000000000476,0.0,1.0,0.0,0.0,2.0,1.0,1.0,0.0,-2.0,-1.0
752.0,-1.0,-1.1200000000000307,0.0,1.0,0.0,0.0,2.0,1.0,1.0,0.0,-2.0,-1.0
753.0,-1.0,-1.0,0.0,1.0,0.0,0.0,2.0,1.0,1.0,0.0,-2.0,-1.0
754.0,-1.0,-1.0,0.0,1.0,0.0,0.0,2.0,1.0,1.0,0.0,-2.0,-1.0
755.0,-1.0,-1.0,0.0,1.0,0.0,0.0,2.0,1.0,1.0,0.0,-2.0,-1.0
756.0,-1.0,-1.0,0.0,1.0,0.0,0.0,2.0,1.0,1.0,0.0,-2.0,-1.0
757.0,-1.0,-1.0,0.0,1.0,0.0,0.0,2.0,1.0,1.0,0.0,-2.0,-1.0
758.0,-1.0,-1.0,0.0,1.0,0.0,0.0,2.0,1.0,1.0,0.0,-2.0,-1.0
759.0,-1.0,-1.0,0.0,1.0,0.0,0.0,2.0,1.0,1.0,0.0,-2.0,-1.0
760.0,-1.0,-1.0,0.0,1.0,0.0,0.0,2.0,1.0,1.0,0.0,-2.0,-1.0
761.0,-1.0,-1.0,0.0,1.0,0.0,0.0,2.0,1.0,1.0,0.0,-2.0,-1.0
762.0,-0.9400000000001131,-1.0,0.0,1.0,0.0,0.0,2.0,1.0,1.0,0.0,-2.0,-1.0
763.0,0.0,-1.0,0.0,1.0,0.0,0.0,2.0,1.0,1.0,0.0,-2.0,-1.0
764.0,0.0,-1.0,0.0,1.0,0.0,0.0,2.0,1.0,1.1599999999999768,0.0,-2.0,-1.0
765.0,0.0,-1.0,0.0,1.0,0.0,0.0,2.0,1.0,1.7249999999999646,0.0,-2.0,-1.0
766.0,0.0,-1.0,0.0,1.0,0.0,0.0,2.0,1.0,1.710000000000054,0.0,-2.0,-1.0
767.0,0.0,-0.6450000000000373,0.0,1.0,0.0,0.35499999999996273,2.0,1.0,1.1450000000000373,0.0,-2.0,-1.0
768.0,0.0,-0.08000000000002055,0.0,1.0,0.0,0.9199999999999795,2.0,1.0,1.0,0.0,-2.0,-1.0
769.0,0.0,0.0,0.0,1.0,0.0,1.0,2.0,1.0,1.0,0.0,-1.0300000000001324,-1.0
770.0,0.0,0.0,0.0,1.0,0.0,1.0,2.0,1.0,1.0,0.0,-1.0,-1.0
771.0,0.0,0.0,0.0,1.0,0.0,1.0,2.0,1.0,1.0,0.0,-1.0,-1.0
772.0,0.0,0.0,0.0,1.0,0.0,1.0,2.0,1.0,1.0,0.0,-1.0,-1.0
773.0,0.0,0.0,0.0,1.0,0.0,1.0,2.0,1.0,1.0,0.0,-1.0,-1.0
774.0,-0.3099999999999512,0.0,0.0,1.0,0.0,1.0,2.0,1.0,1.6199999999999024,0.0,-1.0,-1.0
775.0,-0.8749999999999679,0.0,0.0,1.0,0.0,1.0,2.0,1.0,2.0,0.0,-1.0,-1.0
776.0,-1.0,0.0,0.0,1.0,0.0,1.0,1.5600000000000154,1.0,2.0,0.0,-1.0,-1.0
777.0,-1.0,0.0,0.0,1.0,0.0,1.0,1.0,1.0,2.0,0.0,-1.0,-1.0
778.0,-1.0,0.0,0.0,1.0,0.0,1.0,1.0,1.0,2.0,0.0,-1.0,-1.0
779.0,-1.0,0.0,0.0,1.0,0.0,1.0,1.0,1.0,2.0,0.0,-1.0,-1.0
780.0,-1.0,0.0,0.0,0.8000000000000386,0.0,1.0,1.0,1.0,2.0,0.0,-1.0,-1.0
781.0,-1.0,0.0,0.0,0.23500000000006038,0.0,1.0,1.0,1.0,2.0,0.0,-1.0,-1.0
782.0,-1.0,0.0,0.0,0.0,0.0,1.0,1.0,1.0,2.0,0.0,-1.0,-1.0
783.0,-1.0,0.0,0.0,0.0,0.0,1.0,1.0,1.0,2.0,0.0,-1.0,-1.0
784.0,-1.0,0.0,0.0,0.0,0.0,1.0,1.0,1.0,2.0,0.0,-1.0,-1.0
785.0,-1.0,0.0,0.0,0.0,0.0,1.0,1.0,1.0,2.0,0.0,-1.0,-1.0
786.0,-1.0,0.0,0.0,0.0,0.0,1.0,1.0,1.0,2.0,0.0,-1.0,-1.0
787.0,-1.0,0.0,0.0,0.0,0.0,1.0,1.0,1.0,2.0,0.0,-1.0,-1.0
788.0,-1.0,0.0,0.0,0.0,0.0,1.0,1.0,1.0,2.0,0.0,-1.0,-1.0
789.0,-1.0,0.0,0.0,0.0,0.0,1.0,1.0,1.0,2.0,0.0,-1.0,-1.0
790.0,-1.0,0.0,0.0,0.0,0.0,1.0,1.0,1.0,2.0,0.0,-1.0,-1.0
791.0,-1.0,0.0,0.0,0.0,0.0,1.0,1.0,1.0,2.0,0.0,-1.0,-1.0
792.0,-1.0,0.0,0.0,0.0,0.0,1.0,1.0,1.0,2.0,0.0,-1.0,-1.0
793.0,-1.0,0.0,0.0,0.0,-0.08999999999989466,1.0,1.0,1.0,2.0,0.0,-1.0,-1.0
794.0,-1.0,0.0,0.0,0.0,-1.0,1.0,1.219999999999928,1.0,2.0,0.0,-1.0,-1.0
795.0,-1.0,0.0,0.0,0.0,-1.0,1.0,2.0,1.0,2.0,0.0,-1.0,-1.0
796.0,-1.0,0.0,0.0,0.0,-1.0,1.0,2.0,1.0,2.0,0.0,-1.0,-1.0
797.0,-1.0,0.0,0.0,0.0,-1.0,1.0,2.0,1.0,2.0,0.0,-1.0,-1.0
798.0,-1.0,0.0,0.0,0.0,-1.0,1.0,2.0,1.0,2.0,0.0,-1.0,-1.0
799.0,-1.0,0.0,0.0,0.0,-1.0,1.0,2.0,1.0,2.0,0.0,-1.0,-1.0
800.0,-1.0,0.0,0.0,0.0,-1.0,1.0,2.0,1.0,2.0,0.0,-1.0,-1.0
801.0,-1.0,0.0,0.0,0.0,-1.0,1.0,2.0,1.0,2.0,0.0,-1.0,-1.0
802.0,-1.0,0.0,0.0,0.0,-1.0,1.0,2.0,1.0,2.0,0.0,-1.0,-1.0
803.0,-1.0,0.0,0.0,0.0,-1.0,1.0,2.0,1.0,2.0,0.0,-1.0,-1.0
804.0,-1.0,0.0,0.0,0.0,-1.0,1.0,2.0,1.0,2.0,0.0,-1.0,-1.0
805.0,-1.0,0.0,0.0,0.0,-1.0,1.0,2.0,1.324999999999955,2.0,0.6499999999999101,-1.0,-1.0
806.0,-1.0,0.0,0.0,0.0,-1.0,1.0,2.0,1.8899999999999717,2.0,1.0,-1.0,-1.0
807.0,-1.0,0.0,0.0,0.0,-1.0,1.0,2.0,2.0,2.0,1.0,-1.0,-1.0
808.0,-1.0,0.0,0.0,0.0,-1.0,1.0,2.0,2.0,2.0,1.0,-1.0,-1.0
809.0,-1.0,0.0,0.0,0.0,-0.8300000000000848,1.0,2.0,2.0,2.0,1.0,-1.0,-1.0
810.0,-1.0,0.0,0.0,0.0,0.0,1.0,2.0,2.0,2.0,1.0,-1.0,-1.0
811.0,-0.7850000000000366,0.0,0.0,0.0,0.0,1.0,2.0,2.0,2.0,1.0,-1.0,-1.0
812.0,-0.22000000000005654,0.0,0.0,0.0,0.0,1.0,2.0,2.0,2.0,1.0,-1.0,-1.0
813.0,0.0,0.0,0.0,0.0,0.0,1.0,2.0,2.0,2.0,1.0,-1.0,-1.0
814.0,0.0,0.0,0.0,0.0,0.0,1.0,2.0,2.0,2.0,1.0,-1.0,-1.0
815.0,-0.47499999999993253,0.0,0.0,0.0,0.0,1.0,2.0,2.0,2.0,1.0,-1.0,-1.0
816.0,-1.0,0.0,0.0,0.0,0.0,1.0,2.0,2.0,2.0,1.0,-1.0,-1.0
817.0,-1.0,0.0,0.0,0.0,0.0,1.0,2.0,2.0,2.0,1.0,-1.0,-1.0
818.0,-0.6600000000000847,0.0,0.0,0.0,0.0,1.0,2.0,2.0,2.0,1.0,-1.0,-1.0
819.0,0.0,0.0,0.0,0.0,0.0,1.0,2.0,2.0,2.0,1.0,-1.0,-1.0
820.0,0.0,0.0,0.0,0.0,0.0,1.0,2.0,2.0,2.0,1.0,-1.0,-1.0
821.0,0.0,0.0,0.0,0.0,0.0,1.0,2.0,2.0,2.0,1.0,-1.0,-1.0
822.0,0.0,0.0,0.0,0.0,0.0,1.0,2.0,2.0,2.0,1.0,-1.0,-1.0
823.0,0.0,0.0,0.0,0.0,0.0,1.0,2.0,2.0,2.0,1.0,-1.0,-1.0
824.0,0.0,0.0,0.0,0.0,0.0,1.0,2.0,2.0,2.0,1.0,-1.0,-1.0
825.0,0.0,0.0,0.0,0.0,0.0,1.0,2.0,2.0,2.0,1.0,-1.0,-1.0
826.0,0.0,0.0,0.0,0.0,0.0,1.0,2.0,2.0,2.0,1.0,-1.0,-1.0
827.0,0.0,0.0,0.0,0.0,0.0,1.0,2.0,2.0,2.0,1.0,-1.0,-1.0
828.0,0.0,0.0,0.0,0.0,0.0,1.0,2.0,2.0,2.0,1.0,-1.0,-1.0
829.0,0.0,0.0,0.0,0.0,0.0,1.0,2.0,2.0,2.0,1.0,-1.0,-1.0
830.0,0.0,0.0,0.0,0.0,0.0,1.0,2.0,2.0,2.0,1.0,-1.0,-1.0
831.0,0.0,0.0,0.0,0.0,0.0,1.0,1.9700000000001208,2.0,2.0,1.0,-1.0,-1.0
832.0,0.0,0.0,0.0,0.0,0.0,1.0,1.0,2.0,2.0,1.0,-1.0,-1.0
833.0,0.0,0.0,0.0,0.0,0.0,1.0,1.0,2.0,2.0,1.0,-1.0,-1.0
834.0,0.0,0.0,0.0,0.0,0.0,1.0,1.0,2.0,2.0,1.0,-1.0,-1.0
835.0,0.0,0.0,0.0,0.0,0.0,1.0,1.0,2.0,2.0,1.0,-1.0,-1.0
836.0,0.0,0.0,0.0,0.0,0.0,1.0,1.0,2.0,2.0,1.0,-1.0,-1.0
837.0,0.0,0.0,0.0,0.0,0.0,1.0,1.0,1.5950000000000244,2.0,1.0,-1.0,-1.0
838.0,0.0,0.0,0.0,0.0,0.0,1.0,1.0,1.0300000000000682,2.0,1.0,-1.0,-1.0
839.0,0.0,0.0,0.0,0.0,0.0,1.0,1.0,1.0,2.0,1.0,-0.46500000000005526,-1.0
840.0,0.0,0.0,0.0,0.0,0.0,1.0,1.0,1.0,2.0,1.0,0.0,-1.0
841.0,0.0,0.0,0.0,0.0,0.0,1.0,1.0,1.0,2.0,1.0,0.0,-1.0
842.0,0.0,0.0,0.0,0.0,0.0,1.0,1.0,1.0,2.0,1.0,0.0,-1.0
843.0,0.0,0.0,0.0,0.0,0.0,1.0,1.0,1.0,2.0,1.0,0.0,-1.0
844.0,0.0,0.0,0.0,0.0,0.0,1.0,1.0,1.0,2.0,1.0,0.0,-1.0
845.0,0.0,0.0,0.0,0.0,0.0,1.0,1.0,1.0,2.0,1.0,0.0,-1.0
846.0,0.0,0.0,0.0,0.0,0.0,1.0,1.0,1.0,2.0,1.0,0.0,-0.020000000000131024
847.0,0.0,0.0,0.0,0.0,0.0,1.0,1.0,1.0,2.0,1.0,0.0,0.0
848.0,0.0,0.0,0.0,0.0,0.0,1.0,1.0,1.0,2.0,1.0,0.0,0.0
849.0,0.0,0.0,0.0,0.0,0.0,1.0,1.0,1.0,2.0,1.0,0.0,0.0
850.0,0.0,0.0,0.0,0.0,0.0,1.0,1.0,1.0,2.0,1.0,0.0,0.0
851.0,0.0,0.0,0.0,0.0,0.0,1.0,1.0,1.0,2.0,1.0,0.0,0.0
852.0,0.0,0.0,0.0,0.0,0.0,1.0,1.0,1.0,2.0,1.0,0.0,0.0
853.0,0.0,0.0,0.0,0.0,0.0,1.0,1.0,1.0,2.0,1.0,0.0,0.0
854.0,0.0,0.0,0.0,0.0,0.0,1.0,1.0,1.0,1.4900000000000617,1.0,0.0,-0.019999999999876672
855.0,0.0,0.0,0.0,0.0,0.0,1.0,1.0,1.0,1.0,1.0,0.0,-1.0
856.0,0.0,0.0,0.0,0.0,0.0,1.0,1.0,1.0,1.0,1.0,0.0,-1.0
857.0,0.0,0.0,0.0,0.0,0.0,1.0,1.0,1.0,1.0,1.0,0.0,-1.0
858.0,0.0,0.0,0.0,0.0,0.0,1.0,1.0,1.0,1.0,1.0,0.0,-1.0
859.0,0.0,0.0,0.0,0.0,0.0,1.0,1.0,1.0,1.0,1.0,0.0,-1.0
860.0,0.0,0.0,0.0,0.0,0.0,1.0,1.0,1.0,1.0,1.0,0.0,-1.0
861.0,0.0,0.0,0.0,0.0,0.0,1.0,1.0,1.0,1.0,1.0,0.0,-1.0
862.0,0.0,0.0,0.0,0.0,0.0,1.0,1.0,1.0,1.0,1.0,0.0,-1.0
863.0,0.0,0.0,0.0,0.0,0.0,1.0,1.0,1.0,1.0,1.0,0.0,-1.0
864.0,0.0,0.0,0.0,0.0,0.0,1.0,0.8400000000000437,1.0,1.0,1.0,0.0,-1.0
865.0,0.0,0.0,0.0,0.0,0.0,1.0,0.27500000000007063,1.0,1.0,1.0,0.0,-1.0
866.0,0.0,0.0,0.0,0.0,0.0,1.0,0.0,1.0,1.0,1.0,0.0,-1.0
867.0,0.0,0.0,0.0,0.0,0.0,1.0,0.0,1.0,1.0,1.0,0.0,-1.0
868.0,0.0,0.0,0.0,0.0,0.0,1.0,0.0,1.0,1.0,1.0,0.0,-1.0
869.0,0.0,0.0,0.0,0.0,0.0,1.0,0.0,1.0,1.0,1.0,0.0,-1.0
870.0,0.0,0.0,0.0,0.0,0.0,1.0,0.0,1.0,1.0,1.0,0.0,-1.0
871.0,0.0,0.0,0.0,0.0,0.0,1.0,0.0,1.0,1.0,1.0,0.0,-1.0
872.0,0.0,0.0,0.0,0.0,0.0,1.0,0.0,1.0,1.0,1.0,0.0,-1.0
873.0,0.0,0.0,0.0,0.0,0.0,1.0,0.0,1.0,1.0,1.0,0.0,-1.0
874.0,0.0,0.0,0.0,0.0,0.0,1.0,0.0,1.0,1.0,1.0,0.0,-1.0
875.0,0.0,0.0,0.0,0.0,0.0,1.0,0.0,1.0,1.0,1.0,0.0,-1.0
876.0,0.0,0.0,0.0,0.0,0.0,1.0,0.0,1.0,1.0,1.0,0.0,-1.0
877.0,0.0,0.0,0.0,0.0,0.0,1.0,0.004999999999937051,1.0,1.0,1.0,0.0,-1.0
878.0,0.0,0.0,0.0,0.0,0.0,1.0,0.5699999999999538,1.0,1.0,1.0,0.0,-1.0
879.0,0.0,0.0,0.0,0.0,0.0,1.0,1.0,1.0,1.0,1.0,0.0,-1.0
880.0,0.0,0.0,0.0,0.0,0.0,1.0,1.0,1.0,1.0,1.0,0.0,-1.0
881.0,0.0,0.0,0.0,0.0,0.0,1.0,1.0,1.0,0.47000000000012077,1.0,0.0,-1.0
882.0,0.0,0.0,0.0,0.0,0.0,1.0,1.0,1.0,0.0,1.0,0.0,-1.0
883.0,0.0,0.0,0.0,0.0,0.0,1.0,1.0,1.0,0.0,1.0,0.0,-1.0
884.0,0.0,0.0,0.0,0.0,0.0,1.0,1.0,0.5400000000000693,0.0,1.0,0.0,-1.0
885.0,0.0,0.0,0.0,0.0,0.0,1.0,1.0,0.0,0.0,1.0,0.0,-1.0
886.0,0.0,0.0,0.0,0.0,0.0,1.0,1.0,0.0,0.0,1.0,0.0,-1.0
887.0,0.0,0.0,0.0,0.0,0.0,1.0,1.0,0.0,0.0,0.8450000000000444,0.0,-1.0
888.0,0.0,0.0,0.0,0.0,0.0,1.0,1.0,0.0,0.0,0.28000000000007197,0.0,-1.0
889.0,0.0,0.0,0.0,0.0,0.0,1.0,0.4300000000001105,0.0,0.0,0.0,0.0,-1.0
890.0,0.0,0.0,0.0,0.0,0.0,1.0,0.0,0.0,0.0,0.0,0.0,-1.0
891.0,0.0,0.0,0.0,0.0,0.0,1.0,0.0,0.0,0.0,0.0,0.0,-1.0
892.0,0.0,0.0,0.0,0.0,0.0,1.0,0.0,0.0,0.0,0.0,-0.9599999999998664,-1.0
893.0,0.0,0.0,0.0,0.0,0.0,1.0,0.0,0.0,0.0,0.0,-1.0,-1.0
894.0,0.0,0.0,0.0,0.0,0.0,1.0,0.0,0.0,0.0,0.0,-1.0,-1.0
895.0,0.0,0.0,0.0,0.0,0.0,1.0,0.0,0.0,0.0,0.0,-1.0,-1.0
896.0,0.0,0.0,0.0,0.0,0.0,1.0,0.0,0.0,0.0,0.0,-1.0,-1.0
897.0,0.0,0.0,0.0,0.0,0.0,1.0,0.0,0.0,0.0,0.0,-1.0,-1.0
898.0,0.0,0.0,0.0,0.0,0.0,1.0,0.0,0.0,0.0,0.0,-1.0,-1.0
899.0,0.0,0.0,0.0,0.0,0.0,1.0,0.0,0.0,0.0,0.0,-1.0,-1.0
900.0,0.0,0.0,0.0,0.0,0.0,1.0,0.0,0.0,0.0,0.0,-1.0,-1.0
901.0,0.0,0.0,0.0,0.0,0.0,1.0,0.0,0.0,0.0,0.0,-1.0,-1.0
902.0,0.0,0.0,0.0,0.0,0.0,1.0,0.0,0.0,0.0,0.0,-1.0,-1.0
903.0,0.0,0.0,0.0,0.0,0.0,1.0,0.0,0.0,0.0,0.0,-1.0,-1.0
904.0,0.0,0.0,0.0,0.0,0.0,1.0,0.0,0.0,0.0,0.0,-1.0,-1.0
905.0,0.0,0.0,0.0,0.0,0.0,1.0,0.6499999999999101,0.0,0.0,0.0,-1.0,-1.0
906.0,0.0,0.0,0.0,0.0,0.0,1.0,1.0,0.0,0.0,0.0,-1.0,-1.0
907.0,0.0,0.0,0.0,0.0,0.0,1.0,1.0,0.0,0.0,0.0,-1.0,-1.0
908.0,0.0,0.0,0.0,0.0,0.0,1.0,1.0,0.0,0.0,0.0,-1.0,-1.0
909.0,0.0,0.0,0.0,0.0,0.0,1.0,1.0,0.0,0.0,0.0,-1.0,-1.0
910.0,0.0,0.0,0.0,0.0,0.0,1.0,1.0,0.0,0.0,0.0,-1.0,-1.0
911.0,0.0,0.0,0.0,0.0,0.0,1.0,1.0,0.0,0.0,0.0,-1.0,-1.0
912.0,0.0,0.0,0.0,0.0,0.0,1.0,1.0,0.0,0.0,0.0,-1.0,-1.0
913.0,0.0,0.0,0.0,0.0,0.0,1.0,1.0,0.0,0.0,0.0,-1.0,-1.0
914.0,0.0,0.0,0.0,0.0,0.0,1.0,1.0,0.0,0.0,0.0,-1.0,-1.0
915.0,0.0,-0.9499999999998651,0.0,0.0,0.0,1.0,1.0,0.0,0.0,0.0,-1.0,-1.0
916.0,0.0,-1.0,0.0,0.0,0.0,1.0,1.0,0.0,-0.920000000000108,0.0,-1.0,-1.0
917.0,0.0,-1.0,0.0,0.0,0.0,1.0,1.0,0.0,0.0,0.0,-1.0,-1.0
918.0,0.0,-1.0,0.0,0.0,0.0,1.0,1.0,0.0,0.0,0.0,-1.0,-1.0
919.0,0.0,-1.0,0.0,0.0,0.0,1.0,1.0,0.0,0.0,0.0,-1.0,-1.0
920.0,0.0,-1.0,0.0,0.0,0.0,1.0,1.0,0.0,0.0,0.0,-1.0,-1.0
921.0,0.0,-1.0,0.0,0.0,0.0,1.0,1.0,0.0,0.0,0.0,-1.0,-1.0
922.0,0.0,-1.0,0.0,0.0,0.0,1.0,1.0,0.0,0.0,0.0,-1.0,-1.0
923.0,0.0,-1.0,0.0,0.0,0.0,1.0,1.0,0.0,0.0,0.0,-1.0,-1.0
924.0,-1.0,-1.0,0.0,0.0,0.0,1.0,1.0,0.0,0.0,0.0,-1.0,-1.0
925.0,-1.0,-1.0,0.0,0.0,0.0,1.0,1.0,0.0,0.0,0.0,-1.0,-1.0
926.0,-1.0,-1.0,0.0,0.0,0.0,1.0,1.0,0.0,0.0,0.0,-1.0,-1.0
927.0,-1.0,-1.0,0.0,0.0,0.0,1.0,1.0,0.0,0.0,0.0,-1.0,-1.0
928.0,-1.0,-0.36000000000009247,0.0,0.0,0.0,1.0,1.0,0.0,0.0,0.0,-1.0,-1.0
929.0,-1.0,0.0,0.0,0.0,0.0,1.0,1.0,0.0,0.0,0.0,-1.0,-1.0
930.0,-1.0,0.0,0.0,0.0,0.0,1.0,1.0,0.0,0.0,0.0,-1.0,-1.0
931.0,-1.0,0.0,0.0,0.0,0.0,1.0,1.0,0.0,0.01499999999993962,0.0,-1.0,-1.0
932.0,-1.0,0.0,0.0,0.0,0.0,1.0,1.0,0.0,0.5799999999999563,0.0,-1.0,-1.0
933.0,-1.0,0.0,0.0,0.0,0.0,1.0,1.0,0.0,1.0,0.0,-1.0,-1.0
934.0,-1.0,0.0,0.0,0.0,0.0,1.0,1.0,0.0,1.0,0.0,-1.0,-1.0
935.0,-1.0,0.0,0.0,0.0,0.0,1.0,1.0,0.0,1.0,0.0,-1.0,-1.0
936.0,-1.0,0.0,0.0,0.0,0.0,1.0,1.0,0.0,1.0,0.0,-1.0,-1.0
937.0,-1.0,0.0,0.0,0.0,0.0,1.0,1.0,0.0,1.0,0.0,-1.0,-1.0
938.0,-1.0,0.0,0.0,0.0,0.0,1.0,1.0,0.0,1.0,0.0,-1.0,-1.0
939.0,-1.0,0.0,0.0,0.0,0.0,1.0,1.0,0.0,1.0,0.0,-1.0,-1.0
940.0,-1.0,0.0,0.0,0.0,0.0,1.0,1.0,0.0,1.0,0.0,-1.0,-1.0
941.0,-1.0,0.0,0.0,0.0,0.0,1.0,1.0,0.0,1.0,0.0,-1.0,-1.0
942.0,-1.0,0.0,0.0,0.0,0.0,1.0,1.0,0.0,1.0,0.0,-1.0,-1.0
943.0,-1.0,0.0,0.0,0.0,0.0,1.0,1.0,0.0,1.0,0.0,-1.0,-1.0
944.0,-1.0,0.0,0.0,0.0,0.0,1.0,1.0,0.0,1.0,0.0,-1.0,-1.0
945.0,-0.1500000000001478,0.0,0.0,0.0,0.0,1.0,1.0,0.0,1.0,0.0,-1.0,-1.0
946.0,0.0,0.0,0.0,0.0,0.0,1.0,1.0,0.0,1.0,0.0,-0.020000000000133578,-1.0
947.0,0.0,0.0,0.0,0.0,0.0,1.0,1.0,0.0,1.0,0.0,0.0,-1.0
948.0,0.0,0.0,0.0,0.0,0.0,1.0,1.0,0.0,1.0,0.0,0.0,-1.0
949.0,0.0,0.0,0.0,0.0,0.0,1.0,1.0,0.0,1.0,0.0,0.0,-1.0
950.0,0.0,0.0,0.0,0.0,0.0,1.0,1.0,0.0,1.0,0.0,0.0,-1.0
951.0,0.0,0.0,0.0,0.0,0.0,1.0,1.0,0.0,1.0,0.0,0.0,-1.0
952.0,0.0,0.0,0.0,0.0,0.0,1.0,1.0,0.0,1.0,0.0,0.0,-1.0
953.0,0.0,0.0,0.0,0.0,0.0,1.0,1.0,0.0,1.0,0.4449999999999287,0.0,-1.0
954.0,0.0,0.0,0.0,0.0,0.0,1.0,1.0,0.0,1.0,1.0,0.0,-1.0
955.0,0.0,0.0,0.0,0.0,0.0,1.0,1.0,0.0,1.0,1.0,0.0,-1.0
956.0,0.0,0.0,0.0,0.0,0.0,1.0,1.0,0.0,1.0,1.0,0.0,-1.0
957.0,0.0,0.0,0.0,0.0,0.0,1.0,1.0,0.0,1.0,1.0,0.0,-1.0
958.0,0.0,0.0,0.0,0.0,0.0,1.0,1.0,0.0,1.0,1.0,0.0,-1.0
959.0,0.0,0.0,0.0,0.0,0.0,1.0,1.0,0.0,1.0,1.0,0.0,-1.0
960.0,0.0,0.0,0.0,0.0,0.0,1.0,1.0,0.0,1.0,1.0,0.0,-1.0
961.0,0.0,0.0,0.0,0.0,0.0,1.0,1.0,0.0,1.0,1.0,0.0,-1.0
962.0,0.0,0.0,0.0,0.0,0.0,1.0,1.0,0.0,1.0,1.0,0.0,-1.0
963.0,0.0,0.0,0.0,0.0,0.0,1.0,1.0,0.0,1.0,1.0,0.0,-0.9050000000000398
964.0,0.0,0.0,0.0,0.0,0.0,1.0,1.0,0.0,1.0,1.0,0.0,-0.3400000000000437
965.0,0.0,0.0,0.0,0.0,0.0,1.0,1.0,0.0,1.0,1.0,0.0,0.0
966.0,0.0,0.0,0.0,0.0,0.0,1.0,1.0,0.0,1.0,1.0,0.0,0.0
967.0,0.0,0.0,0.0,0.0,0.0,1.0,1.0,0.0,1.0,1.0,0.0,0.0
968.0,0.0,0.0,0.0,0.0,0.0,1.0,1.0,0.0,1.0,1.0,0.0,0.0
969.0,0.0,0.0,0.0,0.0,0.0,1.0,1.0,0.0,1.0,1.0,0.0,0.0
970.0,0.0,0.0,0.0,0.0,0.0,1.0,0.9500000000000514,0.0,1.0,1.0,0.0,0.0
971.0,0.0,0.0,0.0,0.0,0.0,1.0,0.3850000000000347,0.0,1.0,1.0,0.0,0.0
972.0,0.0,0.0,0.0,0.0,0.0,1.0,0.0,0.0,1.0,1.0,0.0,0.0
973.0,0.0,0.0,0.0,0.0,0.0,1.0,0.0,0.0,1.0,1.0,0.0,0.0
974.0,0.0,0.0,0.0,0.0,0.0,1.0,0.0,0.0,1.0,1.0,0.0,0.0
975.0,0.0,0.0,0.0,0.0,0.0,1.0,0.0,0.0,1.0,1.0,0.0,0.0
976.0,0.0,0.0,0.0,0.0,0.0,1.0,0.0,0.0,1.0,1.0,0.0,0.0
977.0,0.0,0.0,0.0,0.0,0.0,1.0,0.0,0.0,1.0,1.0,0.0,0.0
978.0,0.0,0.0,0.0,0.0,0.0,1.0,0.0,0.0,1.0,1.0,0.0,0.0
979.0,0.0,0.0,0.0,0.0,0.0,1.0,0.0,0.0,1.0,1.0,0.0,0.0
980.0,0.0,0.0,0.0,0.0,0.0,1.0,0.0,0.0,1.0,1.0,0.0,0.0
981.0,0.0,0.0,0.0,0.0,0.0,1.0,0.0,0.0,1.0,1.0,0.0,0.0
982.0,0.0,0.0,0.0,0.0,0.0,1.0,0.0,0.0,1.0,1.0,0.0,0.0
983.0,0.0,0.0,0.0,0.0,0.0,1.0,0.0,0.0,1.0,1.0,0.0,0.0
984.0,0.0,0.0,0.0,0.0,0.0,1.0,0.0,0.0,1.0,1.0,0.0,0.0
985.0,0.0,0.0,0.0,0.0,0.0,1.0,0.0,0.0,1.0,1.0,0.0,0.0
986.0,0.0,0.0,0.0,0.0,0.0,1.0,0.0,0.0,1.0,1.0,0.0,0.0
987.0,0.0,0.0,0.0,0.0,0.0,1.0,0.0,0.0,1.0,1.0,0.0,0.0
988.0,0.0,0.0,0.0,0.0,0.0,1.0,0.0,0.0,1.0,1.0,0.0,0.0
989.0,0.0,0.0,0.0,0.0,0.0,1.0,0.0,0.0,1.0,1.0,0.0,0.0
990.0,0.0,0.0,0.0,0.0,0.0,1.0,0.0,0.0,1.0,1.0,0.0,0.0
991.0,0.0,0.0,0.0,0.0,0.0,1.0,0.0,0.0,1.0,1.0,0.0,0.0
992.0,0.0,0.0,0.0,0.0,0.0,1.0,0.0,0.0,1.0,1.0,0.0,0.0
993.0,0.0,0.0,0.0,0.0,0.0,1.0,0.0,0.0,1.0,1.0,0.0,0.0
994.0,0.0,0.0,0.0,0.0,0.0,1.0,0.0,0.0,1.0,1.0,0.0,0.0
995.0,0.0,0.0,0.0,0.0,0.0,1.0,0.0,0.0,1.0,1.0,0.0,0.0
996.0,0.0,0.0,0.0,0.0,0.0,1.0,0.0,0.0,1.0,1.0,0.0,0.0
997.0,0.0,0.0,0.0,0.0,0.0,1.0,0.0,0.0,1.0,1.0,0.0,0.0
998.0,0.0,0.0,0.0,0.0,0.0,1.0,0.0,0.0,1.0,1.0,0.0,0.0
999.0,0.0,0.0,0.0,0.0,0.0,1.0,0.0,0.0,1.0,1.0,0.0,0.0
1000.0,0.0,0.0,0.0,0.0,0.0,1.0,0.0,0.0,1.0,1.0,0.0,0.0
1001.0,0.0,0.0,0.0,0.0,0.0,1.0,0.0,0.0,1.0,1.0,0.0,0.0
1002.0,0.0,0.0,0.0,0.0,0.0,1.0,0.0,0.0,1.0,1.0,0.0,0.0
1003.0,0.0,0.0,0.0,0.0,0.0,1.0,0.0,0.0,1.0,1.0,0.0,0.0
1004.0,0.0,0.0,0.0,0.0,0.0,1.0,0.0,0.0,1.0,1.0,0.0,0.0
1005.0,0.0,0.0,0.0,0.0,0.0,1.0,0.0,0.0,1.0,1.0,0.0,0.0
1006.0,0.0,0.0,0.0,0.0,0.0,1.0,0.0,0.0,1.0,1.0,0.0,0.0
1007.0,0.0,0.0,0.0,0.0,0.0,1.0,0.0,0.0,1.0,1.0,0.0,0.0
1008.0,0.0,0.0,0.0,0.0,0.0,1.0,0.0,0.0,0.4800000000000591,1.0,0.0,0.0
1009.0,0.0,0.0,0.0,0.0,0.0,1.0,0.0,0.0,0.0,1.0,0.0,0.0
1010.0,0.0,0.0,0.0,0.0,0.0,1.0,0.0,0.0,0.0,1.0,0.0,0.0
1011.0,0.0,0.0,0.0,0.0,0.0,1.0,0.0,0.0,0.0,1.0,0.0,0.0
1012.0,0.0,0.0,0.0,0.0,0.0,1.0,0.0,0.0,0.0,1.0,0.0,0.0
1013.0,0.0,0.0,0.0,0.0,0.0,1.0,0.0,0.0,0.0,1.0,0.0,0.0
1014.0,0.0,0.0,0.0,0.0,0.0,1.0,0.0,0.0,0.0,1.0,0.0,0.0
1015.0,0.0,0.0,0.0,0.0,0.0,1.0,0.0,0.0,0.0,1.0,0.0,0.0
1016.0,0.0,0.0,0.0,0.0,0.0,1.0,0.0,0.0,0.0,1.0,0.0,0.0
1017.0,0.0,0.0,0.0,0.0,0.0,1.0,0.0,0.0,0.0,1.0,0.0,0.0
1018.0,0.0,0.0,0.0,0.0,0.0,1.0,0.0,0.0,0.0,1.0,0.0,0.0
1019.0,0.0,0.0,0.0,0.0,0.0,1.0,0.0,0.0,0.0,1.0,0.0,0.0
1020.0,0.0,0.0,0.0,0.0,0.0,1.0,0.0,0.0,0.0,1.0,0.0,0.0
1021.0,0.0,0.0,0.0,0.0,0.0,1.0,0.0,0.0,0.0,1.0,0.0,0.0
1022.0,0.0,0.0,0.0,0.0,0.0,1.0,0.0,0.0,0.0,1.0,0.0,0.0
1023.0,0.0,0.0,0.0,0.0,0.0,1.0,0.0,0.0,0.0,1.0,0.0,0.0
1024.0,0.0,0.0,0.0,0.0,0.0,1.0,0.0,0.0,0.0,1.0,0.0,0.0
1025.0,0.0,0.0,0.0,0.0,0.0,1.0,0.0,0.0,0.0,1.0,0.0,0.0
1026.0,0.0,0.0,0.0,0.0,0.0,1.0,0.0,0.0,0.0,1.0,0.0,0.0
1027.0,0.0,0.0,0.0,0.0,0.0,1.0,0.0,0.0,0.0,1.0,0.0,0.0
1028.0,0.0,0.0,0.0,0.0,0.0,1.0,0.0,0.0,0.0,1.0,0.0,0.0
1029.0,0.0,0.0,0.0,0.0,0.0,1.0,0.0,0.0,0.0,1.0,0.0,0.0
1030.0,0.0,0.0,0.0,0.0,0.0,1.0,0.0,0.0,0.0,1.0,0.0,0.0
1031.0,0.0,0.0,0.0,0.0,0.0,1.0,0.0,0.0,0.0,1.0,0.0,0.0
1032.0,0.0,0.0,0.0,0.0,0.0,1.0,0.0,0.0,0.0,1.0,0.0,0.0
1033.0,0.0,0.0,0.0,0.0,0.0,1.0,0.0,0.0,0.0,1.0,0.0,0.0
1034.0,0.0,0.0,0.0,0.0,0.0,1.0,0.0,0.0,0.0,1.0,0.0,0.0
1035.0,0.0,0.0,0.0,0.0,0.0,1.0,0.0,0.0,0.0,1.0,0.0,0.0
1036.0,0.0,0.0,0.0,0.0,0.0,1.0,0.0,0.0,0.0,1.0,0.0,0.0
1037.0,0.0,0.0,0.0,0.0,0.0,1.0,0.0,0.0,0.0,1.0,0.0,0.0
1038.0,0.0,0.0,0.0,0.0,0.0,1.0,0.0,0.0,0.0,1.0,0.0,0.0
1039.0,0.0,0.0,0.0,0.0,0.0,1.0,0.0,0.0,0.0,1.0,0.0,0.0
1040.0,0.0,0.0,0.0,0.0,0.0,1.0,0.0,0.0,0.0,1.0,0.0,0.0
1041.0,0.0,0.0,0.0,0.0,0.0,1.0,0.0,0.0,0.0,1.0,0.0,0.0
1042.0,0.0,0.0,0.0,0.0,0.0,1.0,0.0,0.0,0.0,0.5400000000001388,0.0,0.0
1043.0,0.0,0.0,0.0,0.0,0.0,1.0,0.0,0.0,0.0,0.0,0.0,0.0
1044.0,0.0,0.0,0.0,0.0,0.0,1.0,0.0,0.0,0.0,0.0,0.0,0.0
1045.0,0.0,0.0,0.0,0.0,0.0,1.0,0.0,0.0,0.0,0.0,0.0,0.0
1046.0,0.0,0.0,0.0,0.0,0.0,1.0,0.0,0.0,0.0,0.0,0.0,0.0
1047.0,0.0,0.0,0.0,0.0,0.0,1.0,0.0,0.0,0.0,0.0,0.0,0.0
1048.0,0.0,0.0,0.0,0.0,0.0,1.0,0.0,0.0,0.0,0.0,0.0,0.0
1049.0,0.0,0.0,0.0,0.0,0.0,1.0,0.0,0.0,0.0,0.0,0.0,0.0
1050.0,0.0,0.0,0.0,0.0,0.0,1.0,0.0,0.0,0.0,0.0,0.0,0.0
1051.0,0.0,0.0,0.0,0.0,0.0,1.0,0.0,0.0,0.0,0.0,0.0,0.0
1052.0,0.0,0.0,0.0,0.0,0.0,1.0,0.0,0.0,0.0,0.0,0.0,0.0
1053.0,0.0,0.0,0.0,0.0,0.0,1.0,0.0,0.0,0.0,0.0,0.0,0.0
1054.0,0.0,0.0,0.0,0.0,0.0,1.0,0.0,0.0,0.0,0.0,0.0,0.0
1055.0,0.0,0.0,0.0,0.0,0.0,1.0,0.0,0.0,0.0,0.0,0.0,0.0
1056.0,0.0,0.0,0.0,0.0,0.0,1.0,0.0,0.0,0.0,0.0,0.0,0.0
1057.0,0.0,0.0,0.0,0.0,0.0,1.0,0.0,0.0,0.0,0.0,0.0,0.0
1058.0,0.0,0.0,0.0,0.0,0.0,1.0,0.0,0.0,0.0,0.0,0.0,0.0
1059.0,0.0,0.0,0.0,0.0,0.0,1.0,0.0,0.0,0.0,0.0,0.0,0.0
1060.0,0.0,0.0,0.0,0.0,0.0,1.0,0.0,0.0,0.0,0.0,0.0,0.0
1061.0,0.0,0.0,0.0,0.0,0.0,1.0,0.0,0.0,0.0,0.0,0.0,0.0
1062.0,0.0,0.0,0.0,0.0,0.0,1.0,0.0,0.0,0.0,0.0,0.0,0.0
1063.0,0.0,0.0,0.0,0.0,0.0,1.0,0.0,0.0,0.0,0.0,0.0,0.0
1064.0,0.0,0.0,0.0,0.0,0.0,1.0,0.0,0.0,0.0,0.0,0.0,0.0
1065.0,0.0,0.0,0.0,0.0,0.0,1.0,0.0,0.0,0.0,0.0,0.0,0.0
1066.0,0.0,0.0,0.0,0.0,0.0,1.0,0.0,0.0,0.0,0.0,0.0,0.0
1067.0,0.0,0.0,0.0,0.0,0.0,1.0,0.0,0.0,0.0,0.0,0.0,0.0
1068.0,0.0,0.0,0.0,0.0,0.0,1.0,0.0,0.0,0.0,0.0,0.0,0.0
1069.0,0.0,0.0,0.0,0.0,0.0,1.0,0.0,0.0,-0.9699999999999923,0.0,0.0,0.0
1070.0,0.0,0.0,0.0,0.0,0.0,1.0,0.0,0.0,-1.0,0.0,0.0,0.0
1071.0,0.0,0.0,0.0,0.0,0.0,1.0,0.0,0.0,-1.0,0.0,0.0,0.0
1072.0,0.0,0.0,0.0,0.0,0.0,1.0,0.0,0.0,-1.0,0.0,0.0,0.0
1073.0,0.0,0.0,0.0,0.0,0.0,1.0,0.0,0.0,-1.0,0.0,0.0,0.0
1074.0,0.0,0.0,0.0,0.0,0.0,1.0,0.0,0.0,-1.0,0.0,0.0,0.0
1075.0,0.0,0.0,0.0,0.0,0.0,1.0,0.0,0.0,-1.0,0.0,0.0,0.0
1076.0,0.0,0.0,0.0,0.0,0.0,1.0,0.0,0.0,-1.0,0.0,0.0,0.0
1077.0,0.0,0.0,0.0,0.0,0.0,1.0,0.0,0.0,-0.495,0.0,0.0,0.0
1078.0,0.0,0.0,0.0,0.0,0.0,1.0,0.0,0.0,0.0,0.0,0.0,0.0
1079.0,0.0,0.0,0.0,0.0,0.0,1.0,0.0,0.0,0.0,0.0,0.0,0.0
1080.0,0.0,0.0,0.0,0.0,0.0,1.0,0.0,0.0,0.0,0.0,0.0,0.0
1081.0,0.0,0.0,0.0,0.0,0.0,1.0,0.0,0.0,0.0,0.0,0.0,0.0
1082.0,0.0,0.0,0.0,0.0,0.0,1.0,0.0,0.0,0.0,0.0,0.0,0.0
1083.0,0.0,0.0,0.0,0.0,0.0,1.0,0.0,0.0,0.0,0.0,0.0,0.0
1084.0,0.0,0.0,0.0,0.0,0.0,1.0,0.45999999999998975,0.0,0.0,0.0,0.0,0.0
1085.0,0.0,0.0,0.0,0.0,0.0,1.0,1.0,0.0,0.0,0.0,0.0,0.0
1086.0,0.0,0.0,0.0,0.0,0.0,1.0,1.0,0.0,0.0,0.0,0.0,0.0
1087.0,0.0,0.0,0.0,0.0,0.0,1.0,1.0,0.0,0.0,0.0,0.0,0.0
1088.0,0.0,0.0,0.0,0.0,0.0,1.0,1.0,0.0,0.0,0.0,0.0,0.0
1089.0,0.0,0.0,0.0,0.0,0.0,1.0,1.0,0.0,0.0,0.0,0.0,0.0
1090.0,0.0,0.0,0.0,0.0,0.0,1.0,1.0,0.0,0.0,0.0,0.0,0.0
1091.0,0.0,0.0,0.0,0.0,0.0,1.0,1.0,0.0,0.0,0.0,0.0,0.0
1092.0,0.0,0.0,0.0,0.0,0.0,1.0,1.0,0.0,0.0,0.0,0.0,0.0
1093.0,0.0,-0.5449999999998831,0.0,0.0,0.0,1.0,1.0,0.0,0.0,0.0,0.0,0.0
1094.0,0.0,-1.0,0.0,0.0,0.0,1.0,1.0,0.0,0.0,0.0,0.0,0.0
1095.0,0.0,-1.0,0.0,0.0,0.0,1.0,0.8250000000000834,0.0,0.0,0.0,0.0,0.0
1096.0,0.0,-1.0,0.0,0.0,0.0,1.0,0.2600000000000668,0.0,-0.2399999999999332,0.0,0.0,0.0
1097.0,0.0,-1.0,0.0,0.0,0.0,1.0,0.0,0.0,-0.80499999999995,0.0,0.0,0.0
1098.0,0.0,-1.0,0.0,0.0,0.0,1.0,0.0,0.0,-1.0,0.0,0.0,0.0
1099.0,0.0,-1.0,0.0,0.0,0.0,1.0,0.0,0.0,-1.0,0.0,0.0,0.0
1100.0,0.0,-1.0,0.0,0.0,0.0,1.0,1.0,0.0,-1.0,0.0,0.0,0.0
1101.0,0.0,-1.0,0.0,0.0,0.0,1.0,1.0,0.0,-1.0,0.0,0.0,0.0
1102.0,0.0,-1.0,0.0,0.0,0.0,1.0,1.0,0.0,-1.0,0.0,0.0,0.0
1103.0,0.0,-1.0,0.0,0.0,0.0,1.0,1.0,0.0,-1.0,0.0,0.0,0.0
1104.0,0.0,-1.0,0.0,0.0,0.0,1.0,1.0,0.0,-1.0,0.0,0.0,0.0
1105.0,0.0,-1.0,0.0,0.0,0.0,1.0,1.0,0.0,-1.0,0.0,0.0,0.0
1106.0,0.0,-1.0,0.0,0.0,0.0,1.0,1.0,0.0,-1.0,0.0,0.0,0.0
1107.0,0.0,-1.0,0.0,0.0,0.0,1.0,1.0,0.0,-1.0,0.0,0.0,0.0
1108.0,0.0,-1.0,0.0,0.0,0.0,1.0,1.0,0.0,-1.0,0.0,0.0,0.0
1109.0,0.0,-1.0,0.0,0.0,0.0,1.0,1.0,0.0,-1.0,0.0,0.0,0.0
1110.0,0.0,-1.0,0.0,0.0,0.0,1.0,0.7000000000001798,0.0,-1.0,0.0,0.0,0.0
1111.0,0.0,-1.0,0.0,0.0,0.0,1.0,0.0,0.0,-1.0,0.0,0.0,0.0
1112.0,0.0,-1.0,0.0,0.0,0.0,1.0,0.0,0.0,-1.0,0.0,0.0,0.0
1113.0,0.0,-1.0,0.0,0.0,0.0,1.0,0.0,0.0,-1.0,0.0,0.0,-0.6899999999999203
1114.0,0.0,-1.0,0.0,0.0,0.0,1.0,0.0,0.0,-1.0,0.0,0.0,-1.0
1115.0,0.0,-1.0,0.0,0.0,0.0,1.0,0.0,0.0,-1.0,0.0,0.0,-1.0
1116.0,-1.0,-1.0,0.0,0.0,0.0,1.0,0.5399999999998818,0.0,-1.0,0.0,0.0,-1.0
1117.0,-1.0,-1.0,0.0,0.0,0.0,1.0,1.0,0.0,-1.0,0.0,0.0,-1.0
1118.0,-1.0,-1.0,0.0,0.0,0.0,1.0,1.0,0.0,-1.0,0.0,-0.33999999999983044,-1.0
1119.0,-1.0,-1.0,0.0,0.0,0.0,1.0,1.0,0.0,-0.7650000000000681,0.0,-1.0,-1.0
1120.0,-1.0,-1.0,0.0,0.5999999999998973,0.0,1.0,1.0,0.0,-0.20000000000005136,0.0,-1.0,-1.0
1121.0,-1.0,-1.0,0.0,1.0,0.0,1.0,1.0,0.0,0.0,0.0,-1.0,-1.0
1122.0,-1.0,-1.0,0.0,1.0,0.0,1.0,1.0,0.0,0.0,0.0,-1.0,-1.859999999999964
1123.0,-1.0,-1.0,0.0,1.0,0.0,1.0,1.0,0.0,0.0,0.0,-1.0,-2.0
1124.0,-1.0,-1.0,0.0,1.0,0.0,1.0,1.559999999999887,0.0,0.0,0.0,-1.0,-2.0
1125.0,-1.0,-1.0,0.0,1.0,0.0,1.0,2.0,0.0,0.0,0.0,-1.0,-2.0
1126.0,-1.1899999999999205,-1.0,0.0,1.0,0.0,1.0,2.0,0.0,0.0,0.0,-1.0,-2.0
1127.0,-1.754999999999937,-1.0,0.0,1.0,0.0,1.0,2.0,0.0,0.5099999999998741,0.0,-1.0,-2.509999999999874
1128.0,-2.0,-1.3199999999999537,0.0,1.0,0.0,1.0,2.0,0.0,1.0,0.0,-1.6399999999999075,-3.0
1129.0,-2.0,-1.8849999999999705,0.0,1.0,0.0,1.0,2.769999999999941,0.0,1.0,0.0,-2.0,-3.0
1130.0,-2.4499999999999873,-2.0,0.0,1.0,-0.4499999999999872,1.0,3.0,0.0,1.0,0.0,-2.0,-3.4499999999999873
1131.0,-3.0,-2.0,0.0,1.0,-1.0,1.0,3.0,0.0,2.0,0.0,-2.0,-4.0
1132.0,-3.079999999999892,-2.0,0.0,1.159999999999784,-1.0,1.0,3.1599999999997843,0.0,2.0,0.0,-2.0,-4.079999999999892
1133.0,-3.644999999999909,-2.0,0.0,2.0,-1.0,1.0,4.0,0.0,2.2899999999998175,0.0,-2.2899999999998175,-4.644999999999909
1134.0,-4.0,-2.2099999999999254,0.0,2.0,-1.0,1.0,4.0,0.0,3.0,0.0,-3.0,-5.0
1135.0,-4.274999999999942,-2.774999999999942,0.0,2.0,-1.0,1.0,4.0,0.0,3.0,0.0,-3.0,-5.549999999999884
1136.0,-4.839999999999959,-3.0,0.0,2.0,-1.339999999999959,1.0,4.679999999999918,0.0,3.0,0.0,-3.0,-6.0
1137.0,-5.0,-3.0,0.0,2.0,-1.9049999999999756,1.0,5.0,0.0,3.809999999999951,0.0,-3.0,-6.0
1138.0,-5.469999999999993,-3.0,0.9399999999999846,2.469999999999992,-2.0,1.0,5.0,0.0,4.0,0.0,-3.469999999999992,-6.939999999999984
1139.0,-6.0,-3.0,1.0,3.0,-2.0,1.0,5.53499999999988,0.5349999999998806,4.0,0.0,-4.0,-7.03499999999988
1140.0,-6.199999999999794,-3.099999999999897,1.0,3.0,-2.0,1.0,6.0,1.0,4.0999999999998975,0.0,-4.0,-7.5999999999998975
1141.0,-7.0,-3.664999999999914,1.0,3.0,-2.3299999999998278,1.0,6.0,1.0,4.664999999999914,0.0,-4.329999999999828,-8.0
1142.0,-7.0,-4.0,1.0,3.0,-3.0,1.0,6.459999999999861,1.0,5.0,0.0,-5.0,-8.45999999999986
1143.0,-7.589999999999895,-4.0,1.5899999999998946,3.2949999999999475,-3.0,1.0,7.0,1.0,5.0,0.0,-5.0,-9.0
1144.0,-8.0,-4.0,2.0,3.859999999999964,-3.0,1.0,7.0,1.0,5.0,0.0,-5.0,-9.359999999999964
1145.0,-8.0,-4.0,2.0,4.0,-3.8499999999999615,1.0,7.0,1.0,5.0,-0.8499999999999615,-5.8499999999999615,-9.924999999999981
1146.0,-8.489999999999997,-4.0,2.0,4.0,-4.0,1.0,7.0,1.0,5.0,-1.0,-6.0,-10.0
1147.0,-9.0,-4.0,2.109999999999771,4.0,-4.0,1.0,8.0,1.0,5.0,-1.0,-6.054999999999886,-10.554999999999886
1148.0,-9.239999999999805,-4.0,3.0,4.239999999999805,-4.239999999999805,1.0,8.0,1.0,5.0,-1.0,-6.619999999999902,-11.0
1149.0,-10.0,-4.0,3.0,5.0,-5.0,1.0,8.0,1.0,5.0,-1.0,-7.0,-11.369999999999838
1150.0,-10.0,-4.0,3.0,5.0,-5.0,1.0,8.0,1.0,5.0,-1.0,-7.249999999999936,-12.0
1151.0,-10.629999999999905,-4.0,3.3149999999999524,5.0,-5.0,1.0,8.314999999999953,1.0,5.0,-1.0,-7.814999999999952,-12.629999999999905
1152.0,-11.0,-4.0,3.8799999999999693,5.0,-5.7599999999999385,1.0,8.879999999999969,1.0,5.0,-1.3799999999999693,-8.0,-13.0
1153.0,-11.0,-4.0,4.0,5.889999999999972,-6.0,1.0,9.0,1.0,5.0,-1.9449999999999859,-8.889999999999972,-13.889999999999972
1154.0,-12.0,-5.0,4.0,6.0,-6.0,1.0,9.01,1.0,5.0,-2.0,-9.0,-14.01
1155.0,-12.074999999999891,-5.0,4.0,6.0,-6.149999999999782,1.0,9.574999999999891,1.0,5.149999999999782,-2.0,-9.149999999999782,-14.574999999999891
1156.0,-12.639999999999908,-5.0,4.279999999999815,6.0,-7.0,1.0,10.0,1.0,6.0,-2.0,-10.0,-15.0
1157.0,-13.0,-5.409999999999848,5.0,6.409999999999848,-7.0,1.0,10.0,1.0,6.0,-2.4099999999998483,-10.204999999999924,-15.40999999999985
1158.0,-13.0,-6.0,5.0,7.0,-7.0,1.0,10.539999999999882,1.0,6.0,-3.0,-10.769999999999941,-16.0
1159.0,-13.334999999999958,-6.6699999999999156,5.0,7.0,-7.0,1.0,11.0,1.0,6.0,-3.0,-11.334999999999958,-16.669999999999916
1160.0,-13.899999999999974,-7.399999999999975,5.0,7.399999999999975,-7.399999999999975,1.0,11.399999999999974,1.7999999999999488,6.0,-3.399999999999974,-11.899999999999974,-17.0
1161.0,-14.0,-7.964999999999991,5.0,7.964999999999991,-7.964999999999991,1.0,11.964999999999991,2.0,6.0,-3.964999999999991,-12.0,-17.929999999999982
1162.0,-14.059999999999759,-8.559999999999759,5.0,8.029999999999879,-8.0,1.0,12.059999999999759,2.0,6.0,-4.0299999999998795,-13.029999999999879,-18.059999999999757
1163.0,-15.0,-9.594999999999896,4.905000000000104,8.594999999999896,-8.0,1.0,13.0,2.1899999999997917,5.810000000000208,-4.594999999999896,-13.594999999999896,-19.094999999999896
1164.0,-15.0,-10.319999999999826,4.340000000000087,9.0,-8.0,0.6800000000001747,13.319999999999826,3.0,5.0,-5.0,-14.319999999999826,-19.65999999999991
1165.0,-15.0,-11.224999999999929,4.0,9.0,-8.0,0.0,14.0,3.0,4.550000000000141,-5.449999999999859,-15.0,-20.22499999999993
1166.0,-15.579999999999892,-12.079999999999892,4.0,9.579999999999892,-8.0,0.0,14.289999999999946,3.0,4.0,-6.289999999999946,-15.579999999999892,-20.789999999999946
1167.0,-16.0,-12.854999999999963,4.0,10.0,-8.0,-0.7099999999999255,14.854999999999963,3.0,3.2900000000000746,-6.854999999999963,-16.35499999999996,-21.709999999999926
1168.0,-16.0,-13.839999999999959,4.0,10.839999999999959,-8.0,-1.0,15.0,3.0,3.0,-7.839999999999959,-16.91999999999998,-22.839999999999957
1169.0,-16.96999999999999,-14.484999999999996,3.5150000000000037,11.0,-8.0,-1.0,15.484999999999996,3.969999999999992,2.030000000000008,-8.0,-17.96999999999999,-23.0
1170.0,-17.09999999999977,-15.099999999999769,3.0,11.549999999999885,-8.0,-1.5499999999998844,16.0,4.0,1.9000000000002313,-9.049999999999885,-19.049999999999883,-24.09999999999977
1171.0,-18.0,-16.0,3.0,12.0,-8.229999999999801,-2.0,16.0,4.0,1.0,-9.729999999999801,-19.7299999999998,-25.2299999999998
1172.0,-18.0,-16.359999999999836,3.0,12.359999999999836,-9.0,-2.3599999999998356,16.0,4.0,1.0,-10.679999999999918,-20.679999999999918,-26.359999999999836
1173.0,-18.48999999999987,-17.0,3.0,13.0,-9.0,-3.0,16.48999999999987,4.0,1.0,-11.244999999999935,-21.48999999999987,-27.244999999999933
1174.0,-19.0,-17.309999999999953,3.0,13.30999999999995,-9.0,-3.0,17.0,4.0,0.3800000000000976,-11.80999999999995,-22.6199999999999,-27.809999999999953
1175.0,-19.749999999999936,-17.874999999999968,3.0,13.874999999999968,-9.0,-3.0,17.0,4.0,0.0,-12.374999999999968,-23.749999999999936,-28.749999999999936
1176.0,-20.0,-18.0,3.0,14.0,-9.0,-3.0,17.0,3.1200000000000307,0.0,-12.939999999999985,-24.87999999999997,-29.87999999999997
1177.0,-20.505,-17.995,3.0,14.505,-9.01,-4.0,16.99,3.0,0.0,-13.01,-25.01,-30.01
1178.0,-21.0,-17.43000000000011,3.0,15.0,-10.0,-4.0,16.0,2.9300000000001103,-0.13999999999977905,-14.0,-26.13999999999978,-31.06999999999989
1179.0,-21.0,-16.73000000000019,3.0,15.0,-10.0,-3.865000000000094,16.0,2.365000000000094,-1.0,-14.0,-27.134999999999906,-31.634999999999906
1180.0,-21.399999999999846,-16.0,3.399999999999846,15.0,-10.399999999999846,-3.300000000000077,15.600000000000154,2.0,-1.0,-14.0,-27.699999999999925,-32.39999999999985
1181.0,-22.0,-15.293333333333496,4.0,15.0,-11.0,-3.0,15.0,1.4700000000001208,-1.0,-14.0,-28.26499999999994,-33.0
1182.0,-22.0,-13.89666666666677,4.3299999999999566,15.329999999999956,-11.0,-3.0,14.340000000000087,0.6700000000000437,-1.0,-14.0,-28.829999999999956,-33.329999999999956
1183.0,-22.0,-12.578333333333394,4.894999999999973,15.5,-11.789999999999946,-2.210000000000054,13.605000000000027,0.10500000000002696,-1.0,-14.0,-29.789999999999946,-33.894999999999975
1184.0,-22.0,-11.106666666666694,5.9199999999999795,15.04000000000001,-12.0,-2.0,13.04000000000001,0.0,-1.0,-14.0,-30.0,-34.0
1185.0,-23.0,-10.250000000000403,6.049999999999756,15.0,-12.524999999999878,-1.475000000000122,12.475000000000122,-0.024999999999877957,-0.9500000000002441,-14.0,-31.0,-34.52499999999988
1186.0,-23.0,-8.42666666666695,7.179999999999789,15.0,-13.089999999999895,-0.8200000000002107,11.82000000000021,-0.5899999999998946,0.08999999999989466,-13.82000000000021,-31.17999999999979,-35.0899999999999
1187.0,-23.0,-6.81666666666696,8.309999999999823,15.0,-13.65499999999991,0.3099999999998227,11.0,-1.3099999999998226,0.6549999999999113,-13.0,-32.0,-35.65499999999991
1188.0,-23.0,-5.153333333333504,9.219999999999928,15.0,-14.219999999999928,1.0,10.560000000000144,-2.0,1.219999999999928,-12.780000000000072,-32.0,-36.0
1189.0,-23.0,-3.835000000000126,10.06999999999989,15.0,-14.784999999999945,1.0,9.43000000000011,-2.2849999999999446,1.7849999999999446,-12.215000000000055,-32.56999999999989,-36.28499999999995
1190.0,-23.699999999999925,-2.0500000000001397,11.199999999999923,14.300000000000077,-15.699999999999923,1.699999999999923,8.650000000000038,-2.8499999999999615,2.3499999999999615,-11.650000000000038,-33.0,-36.84999999999996
1191.0,-24.0,-0.2550000000000656,12.329999999999956,14.0,-16.414999999999978,2.8299999999999566,7.6700000000000434,-3.0,2.9149999999999783,-11.085000000000022,-33.0,-37.41499999999998
1192.0,-24.0,0.4799999999999949,13.45999999999999,14.0,-16.979999999999993,3.9599999999999898,7.020000000000005,-3.9599999999999898,3.0,-10.04000000000001,-33.95999999999999,-37.98
1193.0,-24.0,1.816666666666281,14.589999999999765,13.455000000000117,-17.544999999999884,4.604999999999728,6.410000000000234,-4.044999999999883,4.0,-9.910000000000235,-34.0,-38.04499999999988
1194.0,-24.0,3.626666666666397,15.756666666666433,13.0,-18.2199999999998,5.959999999999736,5.2800000000002,-4.6099999999999,4.2199999999998,-8.8900000000001,-34.0,-38.6099999999999
1195.0,-24.0,5.1333333333331135,17.133333333333113,12.650000000000167,-19.0,7.349999999999833,4.325000000000084,-5.0,5.0,-8.325000000000083,-34.0,-39.0
1196.0,-24.0,6.319999999999913,18.31999999999991,12.0,-19.479999999999865,8.239999999999933,3.760000000000067,-5.0,5.239999999999934,-7.760000000000066,-34.47999999999987,-39.0
1197.0,-24.0,7.683333333333165,19.47999999999987,11.69500000000005,-20.6099999999999,9.211666666666552,2.8900000000001,-5.6099999999999,5.80499999999995,-6.8900000000001,-35.0,-39.6099999999999
1198.0,-24.0,9.319999999999913,20.986666666666576,11.130000000000033,-21.369999999999965,10.653333333333245,2.130000000000033,-6.0,6.739999999999934,-5.760000000000066,-35.0,-40.0
1199.0,-24.0,11.116666666666607,22.348333333333294,10.565000000000017,-21.934999999999985,11.869999999999967,1.1300000000000334,-6.0,7.434999999999984,-5.065000000000016,-35.0,-40.0
1200.0,-24.0,12.5,23.0,10.0,-23.0,13.0,1.0,-6.0,8.0,-4.0,-35.0,-40.0
1201.0,-23.435000000000112,13.651666666666406,24.484999999999737,9.435000000000112,-23.064999999999888,14.173333333333035,0.0,-6.0,8.629999999999777,-3.3700000000002235,-35.0,-40.0
1202.0,-23.0,15.013333333333083,25.75999999999981,8.870000000000095,-23.629999999999907,15.636666666666441,0.0,-6.0,9.75999999999981,-2.2400000000001903,-34.8700000000001,-40.0
1203.0,-23.0,16.389999999999844,26.889999999999844,8.305000000000078,-24.389999999999844,16.694999999999922,0.0,-6.0,10.694999999999922,-1.3050000000000783,-34.30500000000008,-40.0
1204.0,-22.740000000000062,17.693333333333168,28.019999999999875,7.7400000000000615,-25.0,17.519999999999875,-0.25999999999993834,-6.0,11.259999999999938,-0.48000000000012333,-34.0,-39.480000000000125
1205.0,-22.175000000000043,19.09166666666656,29.14999999999991,7.175000000000045,-25.324999999999957,18.866666666666543,-0.8249999999999551,-6.0,12.14999999999991,0.32499999999995505,-34.0,-39.0
1206.0,-22.0,20.279999999999944,30.279999999999944,6.220000000000057,-25.889999999999972,20.243333333333265,-1.7799999999999434,-6.0,12.889999999999972,1.2799999999999434,-33.220000000000056,-38.61000000000003
1207.0,-22.0,20.954999999999988,30.954999999999988,6.0,-26.0,20.954999999999988,-2.0,-6.0,13.909999999999977,1.9549999999999885,-33.0,-38.04500000000001
1208.0,-21.0,22.039999999999754,32.03999999999975,5.0,-27.0,22.039999999999754,-2.5199999999998766,-6.0,14.039999999999754,3.039999999999753,-32.480000000000125,-37.480000000000125
1209.0,-21.0,23.169999999999785,33.16999999999979,4.830000000000213,-27.084999999999894,23.169999999999785,-3.0849999999998934,-6.0,15.084999999999892,4.169999999999787,-31.915000000000106,-36.83000000000021
1210.0,-20.70000000000018,24.29999999999982,34.29999999999982,3.85000000000009,-27.64999999999991,24.29999999999982,-3.64999999999991,-6.0,15.64999999999991,5.29999999999982,-31.35000000000009,-35.70000000000018
1211.0,-20.0,25.429999999999854,35.0,3.2850000000000734,-28.0,25.429999999999854,-4.0,-6.0,16.0,6.429999999999853,-30.570000000000146,-35.0
1212.0,-20.0,26.279999999999944,35.55999999999989,2.7200000000000566,-28.0,26.279999999999944,-4.279999999999943,-5.720000000000057,16.55999999999989,7.279999999999943,-29.720000000000056,-34.44000000000011
1213.0,-19.31000000000008,27.18999999999992,36.68999999999992,2.1550000000000398,-28.68999999999992,27.18999999999992,-4.84499999999996,-5.15500000000004,17.0,8.18999999999992,-29.15500000000004,-33.31000000000008
1214.0,-19.0,27.909999999999975,37.81999999999995,1.1800000000000463,-29.0,28.319999999999954,-5.409999999999977,-5.0,17.819999999999954,9.319999999999954,-28.180000000000046,-32.18000000000005
1215.0,-19.0,28.94999999999999,38.0,1.0,-29.0,28.974999999999994,-5.974999999999993,-5.0,18.0,9.974999999999994,-27.05000000000001,-32.0
1216.0,-18.0,29.579999999999764,39.03999999999988,0.0,-29.079999999999764,29.579999999999764,-6.039999999999882,-5.0,18.0,11.079999999999764,-26.920000000000236,-30.893333333333647
1217.0,-17.895000000000103,30.604999999999897,39.6049999999999,0.0,-30.0,30.7099999999998,-6.604999999999898,-5.0,18.0,12.209999999999797,-25.7900000000002,-29.4216666666669
1218.0,-17.330000000000084,31.33999999999983,40.33999999999983,-0.16999999999991522,-30.0,31.669999999999916,-7.0,-5.0,18.0,13.169999999999915,-24.66000000000017,-28.16000000000017
1219.0,-17.0,32.0,41.0,-0.7349999999999319,-30.0,32.469999999999864,-7.0,-5.0,18.0,13.734999999999932,-23.530000000000136,-27.265000000000068
1220.0,-16.4000000000001,32.599999999999895,41.599999999999895,-1.2999999999999488,-30.0,33.0,-7.299999999999948,-5.0,18.0,14.599999999999897,-22.700000000000053,-26.4000000000001
1221.0,-16.0,33.0,42.0,-1.8649999999999654,-30.0,33.72999999999993,-7.864999999999966,-5.0,18.0,15.364999999999965,-21.77000000000007,-25.635000000000034
1222.0,-16.0,33.0,42.859999999999964,-2.429999999999982,-30.0,34.429999999999986,-8.0,-5.0,18.0,15.929999999999982,-20.640000000000036,-24.640000000000036
1223.0,-15.010000000000003,33.0,43.0,-2.9949999999999988,-30.0,34.995,-8.0,-5.0,18.0,16.0,-20.005000000000003,-24.005000000000003
1224.0,-15.0,33.0,43.05999999999989,-3.119999999999774,-30.0,35.05999999999989,-8.0,-5.0,17.94000000000011,17.0,-19.380000000000226,-22.880000000000226
1225.0,-14.750000000000192,33.0,43.6249999999999,-4.0,-30.0,35.6249999999999,-7.875000000000096,-5.0,17.375000000000096,17.124999999999904,-18.250000000000192,-21.750000000000192
1226.0,-14.0,33.0,44.0,-4.0,-30.0,36.0,-7.3100000000000795,-5.0,17.0,17.68999999999992,-17.31000000000008,-20.62000000000016
1227.0,-14.0,33.0,44.0,-4.509999999999874,-30.0,36.0,-7.0,-5.0,16.490000000000126,18.0,-16.74500000000006,-20.0
1228.0,-14.0,32.68000000000005,44.0,-5.0,-30.0,36.31999999999995,-7.0,-5.0,16.0,18.0,-15.860000000000092,-19.360000000000092
1229.0,-13.230000000000059,32.11500000000003,44.0,-5.0,-30.0,36.88499999999997,-7.0,-5.0,15.230000000000059,18.0,-14.730000000000059,-18.23000000000006
1230.0,-13.0,32.0,44.0,-5.449999999999987,-30.0,37.0,-7.0,-5.0,14.100000000000026,18.0,-14.050000000000013,-17.100000000000026
1231.0,-12.985000000000124,31.0,43.98500000000013,-6.0,-29.970000000000248,37.0,-6.0,-4.0,13.97000000000025,18.0,-13.0,-15.985000000000124
1232.0,-12.420000000000108,30.840000000000217,43.42000000000011,-6.0,-29.0,36.92000000000011,-6.0,-4.0,12.840000000000217,18.0,-12.840000000000217,-15.420000000000108
1233.0,-12.0,29.855000000000093,43.0,-6.0,-29.0,36.35500000000009,-5.855000000000091,-4.0,11.855000000000091,18.0,-11.855000000000091,-14.710000000000182
1234.0,-12.0,29.290000000000074,43.0,-6.0,-28.580000000000148,36.0,-5.290000000000075,-4.0,11.290000000000074,18.0,-11.290000000000074,-13.58000000000015
1235.0,-12.0,28.450000000000117,42.45000000000012,-6.0,-28.0,36.0,-5.0,-4.0,10.450000000000117,18.0,-10.725000000000058,-13.0
1236.0,-12.0,27.660000000000043,42.0,-6.0,-28.0,35.66000000000004,-5.0,-4.0,9.320000000000082,17.660000000000043,-10.160000000000041,-12.320000000000082
1237.0,-11.19000000000005,26.690000000000047,41.19000000000005,-6.0,-27.595000000000024,35.09500000000003,-4.190000000000049,-4.0,8.19000000000005,17.095000000000024,-9.19000000000005,-12.0
1238.0,-11.0,25.560000000000016,41.0,-6.0,-27.03000000000001,35.0,-4.0,-4.0,7.530000000000007,17.0,-8.530000000000008,-11.060000000000015
1239.0,-11.0,24.930000000000238,40.0,-6.0,-26.930000000000238,34.0,-3.930000000000239,-4.0,6.96500000000012,16.930000000000238,-8.0,-10.93000000000024
1240.0,-10.800000000000205,23.800000000000207,39.8000000000002,-6.0,-26.0,33.900000000000105,-3.0,-4.0,6.4000000000001025,16.0,-7.800000000000206,-9.900000000000103
1241.0,-10.0,22.670000000000172,38.67000000000017,-6.0,-25.670000000000172,33.335000000000086,-3.0,-3.835000000000086,5.670000000000172,15.835000000000086,-7.0,-9.170000000000172
1242.0,-10.0,21.540000000000138,38.0,-6.0,-25.0,32.54000000000014,-2.5400000000001386,-3.2700000000000693,5.0,15.270000000000069,-6.540000000000139,-8.270000000000069
1243.0,-9.705000000000053,21.0,37.4100000000001,-6.0,-24.70500000000005,32.0,-2.0,-3.0,4.410000000000105,15.0,-6.0,-7.7050000000000525
1244.0,-9.140000000000036,20.280000000000072,36.640000000000036,-6.0,-24.140000000000036,31.280000000000072,-2.0,-3.0,4.0,14.280000000000072,-5.640000000000036,-7.140000000000036
1245.0,-9.0,19.150000000000038,35.65000000000004,-6.0,-23.57500000000002,30.57500000000002,-2.0,-3.0,3.1500000000000385,14.0,-5.075000000000019,-6.1500000000000385
1246.0,-8.020000000000005,19.0,35.010000000000005,-6.0,-23.01,30.01,-2.0,-3.0,3.0,14.0,-5.0,-6.0
1247.0,-8.0,17.890000000000228,33.89000000000023,-5.445000000000114,-22.445000000000114,29.390000000000228,-1.8900000000002286,-3.0,2.4450000000001144,13.0,-4.0,-4.945000000000114
1248.0,-7.760000000000195,16.760000000000197,32.7600000000002,-5.0,-21.760000000000197,28.3800000000001,-1.0,-3.0,1.8800000000000976,12.760000000000195,-3.760000000000195,-4.380000000000098
1249.0,-7.0,15.630000000000162,31.630000000000162,-5.0,-20.81500000000008,27.630000000000162,-1.0,-3.0,1.315000000000081,12.0,-3.0,-3.630000000000162
1250.0,-6.500000000000129,14.500000000000128,30.500000000000128,-5.0,-20.250000000000064,26.500000000000128,-1.0,-3.0,1.0,12.0,-2.5000000000001283,-3.0
1251.0,-6.0,13.685000000000047,29.68500000000005,-5.0,-19.68500000000005,25.68500000000005,-1.0,-3.0,0.6850000000000476,11.370000000000095,-2.0,-2.370000000000095
1252.0,-5.2400000000000615,13.120000000000031,28.740000000000062,-5.0,-18.740000000000062,25.12000000000003,-1.0,-3.0,0.1200000000000308,11.0,-1.6200000000000307,-1.6200000000000307
1253.0,-4.555000000000014,12.110000000000028,27.461666666666694,-5.0,-18.055000000000014,24.110000000000028,-1.0,-3.0,0.0,10.110000000000028,-1.0550000000000141,-1.0550000000000141
1254.0,-3.990000000000126,10.990000000000126,25.990000000000126,-4.980000000000252,-16.990000000000126,22.990000000000126,-1.0,-2.0,-0.009999999999874103,10.0,-0.9800000000002518,0.0
1255.0,-3.425000000000109,10.425000000000109,25.325000000000255,-4.0,-16.350000000000218,22.350000000000218,-1.0,-2.0,-0.5749999999998908,9.850000000000218,0.0,0.0
1256.0,-2.720000000000185,9.720000000000185,23.960000000000242,-4.0,-15.360000000000092,21.220000000000184,-1.0,-2.0,-1.0,9.0,0.0,0.1399999999999075
1257.0,-1.7950000000000759,8.795000000000076,22.45333333333354,-4.0,-14.59000000000015,20.090000000000153,-1.4099999999998485,-2.0,-1.0,8.795000000000076,0.0,0.7049999999999242
1258.0,-1.230000000000059,8.230000000000059,21.306666666666747,-4.0,-13.460000000000118,19.23000000000006,-2.0,-2.0,-1.0,8.230000000000059,0.5399999999998818,1.539999999999882
1259.0,-0.3300000000000848,7.665000000000043,20.330000000000084,-4.0,-12.665000000000042,18.330000000000084,-2.0,-2.0,-1.0,8.0,1.0,2.3349999999999578
1260.0,0.0,7.100000000000025,18.933333333333405,-4.0,-11.70000000000005,17.200000000000053,-2.0,-2.0,-1.0,8.0,1.0,2.899999999999974
1261.0,0.0,6.070000000000018,17.58166666666669,-4.0,-11.035000000000009,16.070000000000018,-2.0,-2.0,-1.0,7.070000000000018,1.929999999999982,3.929999999999982
1262.0,1.0,5.9700000000001205,16.92000000000032,-4.0,-9.970000000000121,15.940000000000241,-2.0,-2.0,-1.0599999999997585,7.0,2.0299999999998795,4.059999999999759
1263.0,1.189999999999792,5.405000000000104,15.445000000000247,-4.0,-9.310000000000208,14.810000000000208,-2.0,-2.0,-2.0,7.0,2.594999999999896,5.094999999999896
1264.0,2.1599999999999127,5.0,14.180000000000174,-4.0,-8.180000000000174,13.680000000000174,-2.0,-2.0,-2.0,6.680000000000175,3.1599999999999127,5.659999999999913
1265.0,2.7249999999999295,4.550000000000141,13.275000000000071,-4.0,-7.2750000000000705,12.550000000000141,-2.0,-2.0,-2.0,6.0,3.7249999999999295,6.449999999999859
1266.0,3.289999999999946,4.0,12.226666666666814,-4.0,-6.710000000000054,12.0,-2.579999999999892,-2.0,-2.579999999999892,6.0,4.0,7.0
1267.0,3.8549999999999627,4.0,10.838333333333422,-4.0,-5.790000000000075,11.290000000000074,-3.0,-2.0,-3.0,6.0,4.354999999999963,7.354999999999963
1268.0,4.0,3.160000000000041,9.660000000000041,-4.0,-5.0800000000000205,10.160000000000041,-3.0,-2.0,-3.0,5.160000000000041,4.9199999999999795,7.9199999999999795
1269.0,4.969999999999993,3.0,8.530000000000008,-4.0,-4.030000000000007,9.515000000000004,-3.0,-2.0,-3.0,5.0,5.0,8.484999999999996
1270.0,5.0,3.0,7.900000000000231,-4.0,-3.0,8.950000000000115,-3.0,-2.0,-3.0999999999997687,5.0,6.0,9.0
1271.0,5.114999999999901,2.7700000000001976,6.770000000000198,-4.0,-2.7700000000001976,8.270000000000199,-3.0,-2.0,-4.0,4.885000000000099,6.0,9.229999999999801
1272.0,5.679999999999918,2.0,5.640000000000164,-4.0,-1.8200000000000822,7.320000000000082,-3.0,-2.0,-4.0,4.320000000000082,6.179999999999918,10.0
1273.0,6.0,2.0,4.510000000000131,-4.0,-1.2550000000000656,6.510000000000131,-3.0,-2.0,-4.0,4.0,6.744999999999934,10.0
1274.0,6.0,2.0,4.0,-4.0,-0.6900000000000488,6.0,-3.0,-2.0,-4.0,4.0,7.0,10.30999999999995
1275.0,6.749999999999936,1.2500000000000642,3.250000000000064,-4.0,-0.12500000000003209,5.250000000000064,-3.0,-2.0,-4.0,4.0,7.0,10.874999999999968
1276.0,7.0,1.0,2.1200000000000307,-4.0,0.0,5.0,-3.0,-2.0,-4.0,4.0,7.879999999999969,11.0
1277.0,7.0,1.0,1.4950000000001271,-4.0,0.009999999999745638,4.0,-4.0,-2.0,-4.0,3.0,8.0,11.0
1278.0,7.139999999999779,1.0,0.8600000000002209,-4.0,1.0,3.860000000000221,-4.0,-1.860000000000221,-4.0,3.0,8.0,11.139999999999779
1279.0,8.0,1.0,0.0,-4.0,1.2699999999998124,3.0,-4.0,-1.0,-4.0,3.0,8.269999999999813,12.0
1280.0,8.0,0.6000000000001542,0.0,-4.0,2.0,2.600000000000154,-4.0,-1.0,-4.0,3.0,9.0,12.0
1281.0,8.0,0.0,0.0,-4.0,2.0,2.0,-4.0,-1.0,-4.0,3.0,9.0,12.0
1282.0,8.0,0.0,-0.6599999999999127,-4.0,2.6599999999999127,2.0,-4.0,-1.0,-4.0,3.0,9.0,12.0
1283.0,8.0,0.0,-1.394999999999973,-4.0,3.0,1.210000000000054,-4.0,-1.0,-4.0,3.0,9.0,12.394999999999973
1284.0,8.0,0.0,-1.9599999999999898,-4.0,3.4599999999999898,1.0,-4.0,-1.0,-4.0,2.0800000000000205,9.91999999999998,12.95999999999999
1285.0,8.0,0.0,-2.024999999999878,-4.0,4.0,1.0,-4.0,-1.0,-4.0,2.0,10.0,13.0
1286.0,8.0,0.0,-2.5899999999998946,-4.0,4.089999999999895,1.0,-4.0,-1.0,-4.0,2.0,10.0,13.0
1287.0,8.0,0.0,-3.1549999999999114,-4.0,4.654999999999911,1.0,-4.0,-1.0,-4.0,2.0,10.0,13.0
1288.0,8.0,0.0,-3.7199999999999283,-4.0,5.0,0.780000000000072,-4.0,-1.219999999999928,-4.4399999999998565,2.0,10.0,13.0
1289.0,8.0,0.0,-4.0,-4.0,5.0,0.21500000000005526,-4.0,-1.7849999999999446,-5.0,2.0,10.56999999999989,13.0
1290.0,8.0,0.0,-4.3499999999999615,-4.0,5.3499999999999615,0.0,-4.0,-2.0,-5.0,2.0,11.0,13.0
1291.0,8.0,0.0,-4.914999999999978,-4.0,5.914999999999978,0.0,-4.0,-2.0,-5.0,2.0,11.0,13.0
1292.0,8.0,0.0,-5.0,-4.0,6.0,-0.4799999999998715,-4.0,-2.0,-5.0,2.0,11.0,13.0
1293.0,9.0,0.0,-5.089999999999766,-4.0,6.0,-1.0,-4.0,-2.0,-5.0,1.9550000000001169,11.0,13.089999999999765
1294.0,9.0,0.0,-6.0,-4.0,6.2199999999998,-1.0,-4.0,-2.0,-5.0,1.3900000000001003,11.0,14.0
1295.0,9.0,0.0,-6.0,-4.0,7.0,-1.0,-4.0,-2.0,-5.0,1.0,11.0,14.0
1296.0,9.0,0.0,-6.0,-4.0,7.0,-1.4799999999998663,-4.0,-2.0,-5.0,1.0,11.0,14.0
1297.0,9.0,0.0,-6.6099999999999,-4.0,7.0,-2.0,-4.0,-2.0,-5.0,1.0,11.0,14.0
1298.0,9.0,0.0,-7.0,-4.0,7.0,-2.0,-4.0,-2.0,-5.0,1.0,11.0,14.0
1299.0,9.0,0.0,-7.0,-4.0,7.434999999999984,-2.0,-4.0,-2.0,-5.0,1.0,11.0,14.0
1300.0,9.0,0.0,-7.499999999999871,-4.0,7.999999999999871,-2.0,-4.0,-2.0,-5.0,1.0,11.499999999999872,14.0
1301.0,9.0,0.0,-8.0,-4.0,8.0,-2.064999999999888,-4.0,-2.0,-5.0,1.0,12.0,14.0
1302.0,9.0,0.0,-8.0,-4.0,8.0,-2.629999999999905,-4.0,-2.0,-5.0,1.0,12.0,14.0
1303.0,9.0,0.0,-8.0,-4.0,8.0,-3.0,-4.0,-2.0,-5.0,1.0,12.0,14.0
1304.0,9.519999999999877,0.0,-8.0,-4.0,8.0,-3.0,-4.0,-2.0,-5.0,1.0,12.0,14.0
1305.0,10.0,0.0,-8.324999999999955,-4.0,8.0,-3.0,-4.0,-2.0,-5.0,1.0,12.0,14.0
1306.0,10.0,0.0,-8.889999999999972,-4.0,8.779999999999944,-3.0,-4.0,-2.0,-5.779999999999943,1.0,12.0,14.0
1307.0,10.0,0.0,-9.0,-4.0,9.0,-3.0,-4.0,-2.0,-6.0,1.0,12.0,14.0
1308.0,10.0,0.0,-9.0,-4.0,9.0,-3.0,-4.0,-2.0,-6.0,0.48000000000012333,12.0,14.0
1309.0,10.0,0.0,-9.0,-4.0,9.0,-3.0849999999998934,-4.0,-2.0,-6.0,0.0,12.0,14.0
1310.0,10.0,0.0,-9.0,-4.0,9.0,-3.64999999999991,-4.0,-2.0,-6.0,0.0,12.0,14.0
1311.0,10.0,0.0,-9.0,-4.0,9.0,-4.0,-4.0,-2.0,-6.0,0.0,12.0,14.0
1312.0,10.0,0.0,-9.0,-4.0,9.0,-4.0,-4.0,-2.0,-6.0,0.0,12.0,14.0
1313.0,10.0,0.0,-9.68999999999992,-4.0,9.0,-4.0,-4.0,-2.0,-6.0,0.0,12.0,14.0
1314.0,10.0,0.0,-10.0,-4.0,9.0,-4.0,-4.0,-2.0,-6.0,0.0,12.0,14.0
1315.0,10.0,-0.949999999999743,-10.0,-4.0,9.0,-4.0,-4.0,-2.0,-6.0,0.0,12.0,14.0
1316.0,10.0,-1.0,-10.0,-4.0,9.079999999999764,-4.0,-4.0,-2.0,-6.0,0.0,12.0,14.0
1317.0,10.0,-1.0,-10.0,-4.0,10.0,-4.0,-4.0,-2.0,-6.0,0.0,12.0,14.0
1318.0,10.0,-1.0,-10.0,-4.0,10.0,-4.0,-4.0,-2.0,-6.0,0.0,12.0,14.0
1319.0,10.0,-1.0,-10.0,-4.0,10.0,-4.0,-4.0,-2.0,-6.0,0.0,12.0,14.0
1320.0,10.0,-1.0,-10.0,-4.0,10.0,-4.0,-4.0,-2.0,-6.0,0.0,12.0,14.0
1321.0,10.0,-1.0,-10.0,-4.0,10.0,-4.0,-4.0,-2.0,-6.0,0.0,12.0,14.0
1322.0,10.0,-1.0,-10.0,-4.0,10.0,-4.0,-4.0,-2.0,-6.0,0.0,12.0,14.0
1323.0,10.0,-1.0,-10.0,-4.0,10.0,-4.0,-4.0,-2.0,-6.0,0.0,12.0,14.0
1324.0,10.0,-1.0,-10.0,-4.0,10.0,-4.119999999999774,-4.0,-2.0,-6.0,0.0,12.0,14.0
1325.0,10.0,-1.0,-10.0,-4.0,10.0,-5.0,-4.0,-2.0,-6.0,0.0,12.0,14.0
1326.0,9.81000000000008,-1.0,-10.18999999999992,-4.0,10.0,-5.0,-4.0,-2.0,-6.0,0.0,12.0,14.0
1327.0,9.245000000000063,-1.0,-10.754999999999937,-4.0,10.0,-5.0,-4.0,-2.0,-6.0,0.0,12.0,14.0
1328.0,9.0,-1.0,-11.0,-4.0,10.0,-5.0,-4.0,-2.0,-6.0,0.0,12.0,14.0
1329.0,9.0,-1.0,-11.0,-4.0,10.0,-5.0,-4.0,-2.0,-6.0,0.0,12.0,14.0
1330.0,9.0,-1.0,-11.0,-4.0,10.0,-5.0,-3.1000000000000254,-2.0,-6.0,0.0,12.0,14.0
1331.0,9.0,-1.0,-11.0,-4.0,10.0,-5.0,-3.0,-2.0,-6.0,0.0,12.0,14.0
1332.0,9.0,-1.0799999999998922,-11.0,-4.0,10.0,-5.0,-3.0,-2.0,-6.0,0.0,12.0,14.0
1333.0,9.0,-1.6449999999999088,-11.0,-3.7100000000001825,10.0,-5.0,-3.0,-2.0,-6.0,0.0,12.0,14.0
1334.0,9.0,-2.0,-11.0,-3.0,10.0,-5.0,-3.0,-2.0,-6.0,0.0,12.0,14.0
1335.0,8.450000000000117,-2.0,-11.0,-3.0,10.0,-5.0,-3.0,-2.0,-6.0,0.0,12.0,14.0
1336.0,8.0,-2.0,-11.0,-3.0,10.0,-5.0,-3.0,-2.0,-6.0,0.0,12.0,14.0
1337.0,8.0,-2.0,-11.0,-3.0,10.0,-5.0,-3.0,-2.0,-6.0,0.0,12.0,14.0
1338.0,8.0,-2.0,-11.0,-3.0,10.0,-5.0,-3.0,-2.0,-6.0,0.0,12.0,14.0
1339.0,8.0,-2.0,-11.0,-3.0,10.0,-5.0,-3.0,-2.0,-6.0,0.0,12.0,14.0
1340.0,8.0,-2.0,-11.0,-3.0,10.0,-5.0,-3.0,-2.0,-6.0,0.0,12.0,14.0
1341.0,8.164999999999914,-2.0,-11.0,-3.0,10.0,-5.0,-3.0,-2.0,-6.0,0.0,12.0,14.0
1342.0,8.729999999999931,-2.0,-11.0,-3.0,10.0,-5.0,-3.0,-2.2299999999999307,-6.0,0.0,12.0,14.0
1343.0,9.0,-2.0,-11.0,-3.0,10.0,-5.0,-3.0,-2.7949999999999475,-6.0,0.0,12.0,14.0
1344.0,9.0,-1.640000000000036,-11.0,-3.0,10.0,-5.0,-3.0,-3.0,-6.0,0.0,12.0,14.0
1345.0,9.0,-1.0750000000000193,-11.0,-3.0,10.0,-5.0,-3.0,-3.0,-6.0,0.0,12.0,14.0
1346.0,9.0,-1.0,-11.0,-3.0,10.0,-5.0,-3.0,-3.0,-6.0,0.0,12.0,14.0
1347.0,9.0,-1.0,-11.0,-3.0,10.0,-5.0,-3.0,-3.0,-6.0,0.0,12.0,14.0
1348.0,9.0,-1.0,-11.0,-3.0,10.0,-5.0,-3.0,-3.0,-6.0,0.0,12.0,14.0
1349.0,9.0,-1.0,-11.0,-3.0,10.0,-5.0,-3.0,-3.0,-6.0,0.0,12.0,14.0
1350.0,9.0,-1.0,-11.0,-3.0,10.0,-5.0,-3.0,-3.0,-6.0,0.0,12.0,14.0
1351.0,9.0,-1.0,-11.0,-3.0,10.0,-5.0,-3.0,-3.0,-6.0,0.0,12.0,14.0
1352.0,9.0,-1.0,-11.0,-3.0,10.0,-5.0,-3.0,-3.0,-6.0,0.0,12.0,14.0
1353.0,9.0,-1.0,-11.0,-3.0,10.0,-5.0,-3.0,-3.0,-6.0,0.0,12.0,14.0
1354.0,9.0,-1.0,-11.0,-3.0,10.0,-5.0,-4.0,-3.0,-6.0,0.0,12.0,14.0
1355.0,9.0,-1.0,-11.0,-3.0,10.0,-5.0,-4.0,-3.0,-6.0,0.0,12.0,14.0
1356.0,9.0,-1.0,-11.0,-3.0,10.0,-5.0,-4.0,-3.0,-6.0,0.0,12.0,14.0
1357.0,9.0,-1.0,-11.0,-3.0,10.0,-5.0,-4.0,-3.0,-6.0,0.0,12.0,14.0
1358.0,9.0,-1.0,-11.0,-3.0,10.0,-5.0,-3.730000000000059,-3.0,-6.0,0.0,12.0,14.0
1359.0,9.0,-1.0,-11.0,-3.0,10.0,-5.0,-3.1650000000000422,-3.0,-6.0,0.0,12.0,14.0
1360.0,9.0,-1.0,-11.0,-3.0,10.0,-5.0,-3.0,-3.0,-5.600000000000025,0.0,12.0,14.0
1361.0,9.0,-1.0,-11.0,-3.0,10.0,-5.0,-3.0,-3.0,-5.035000000000128,0.0,12.0,14.0
1362.0,9.0,-1.0,-11.0,-3.0,10.0,-5.0,-3.0,-3.0,-5.0,0.0,12.0,14.0
1363.0,9.0,-1.0,-11.0,-3.0,10.0,-5.0,-3.0,-3.0,-5.0,0.0,12.0,14.0
1364.0,9.0,-1.0,-11.0,-3.0,10.0,-5.0,-3.0,-3.0,-5.0,0.0,12.0,14.0
1365.0,9.0,-1.0,-11.0,-3.0,10.0,-5.0,-3.0,-3.0,-5.0,0.0,12.0,14.0
1366.0,9.0,-1.0,-11.0,-3.0,10.0,-5.0,-3.0,-3.0,-5.0,0.0,12.0,14.0
1367.0,9.0,-1.0,-11.0,-3.0,10.0,-5.0,-3.0,-3.0,-5.0,0.0,12.0,14.0
1368.0,9.0,-1.0,-10.580000000000021,-3.0,10.0,-5.0,-3.0,-3.0,-5.0,0.0,12.0,14.0
1369.0,9.0,-1.0,-10.015000000000128,-3.0,10.0,-5.0,-3.0,-3.0,-5.0,0.0,12.0,14.0
1370.0,9.0,-1.0,-10.0,-3.0,10.0,-5.0,-3.0,-3.0,-5.0,0.0,12.0,14.0
1371.0,9.0,-1.0,-10.0,-3.0,10.0,-5.0,-3.0,-3.0,-5.0,0.0,12.0,14.0
1372.0,9.0,-1.0,-10.0,-3.0,10.0,-5.0,-3.0,-3.0,-5.0,0.0,12.0,14.0
1373.0,9.0,-1.0,-10.0,-3.0,10.0,-5.0,-3.0,-3.0,-5.0,0.0,12.0,14.0
1374.0,9.0,-1.0,-10.0,-3.0,10.0,-5.0,-3.0,-3.0,-5.0,0.0,12.0,14.0
1375.0,9.0,-1.0,-10.0,-3.0,10.0,-5.0,-3.0,-3.0,-5.0,0.0,12.0,14.0
1376.0,9.0,-1.0,-10.0,-3.0,10.0,-5.0,-3.0,-3.0,-5.0,0.0,12.0,14.0
1377.0,9.0,-1.0,-10.0,-3.0,10.0,-5.0,-3.0,-3.0,-5.0,0.0,12.0,14.0
1378.0,9.0,-1.0,-10.0,-3.0,10.0,-5.0,-3.0,-3.0,-5.0,0.0,12.0,14.0
1379.0,9.0,-1.0,-10.0,-3.0,10.0,-5.0,-3.0,-3.0,-5.0,0.0,12.0,14.0
1380.0,9.0,-1.0,-10.0,-3.0,9.800000000000077,-5.0,-3.0,-3.0,-5.0,0.0,12.0,14.0
1381.0,9.0,-0.7350000000000604,-10.0,-3.0,9.23500000000006,-5.0,-3.0,-3.0,-5.0,0.0,12.0,14.0
1382.0,9.0,-0.17000000000004367,-10.0,-3.0,9.0,-5.0,-3.0,-3.0,-5.0,0.0,12.0,14.0
1383.0,9.0,0.0,-10.0,-3.0,9.0,-4.210000000000054,-3.0,-3.0,-5.0,0.0,12.0,14.0
1384.0,9.0,0.0,-10.0,-3.0,9.0,-4.0,-3.0,-3.0,-5.0,0.0,12.0,14.0
1385.0,9.0,0.0,-10.0,-4.0,9.0,-4.0,-3.0,-3.0,-5.0,0.0,13.0,14.0
1386.0,9.0,0.0,-10.0,-4.0,9.0,-4.0,-3.179999999999789,-3.0,-5.0,0.0,13.0,14.0
1387.0,9.0,0.0,-10.0,-4.0,9.0,-4.0,-4.0,-3.0,-5.0,0.0,13.0,14.0
1388.0,9.0,0.0,-10.0,-4.0,9.0,-4.0,-4.0,-3.0,-5.0,0.0,13.0,14.0
1389.0,9.0,0.0,-10.0,-4.0,9.0,-4.0,-4.0,-3.0,-5.0,0.0,13.0,14.0
1390.0,9.0,0.0,-10.0,-4.0,9.0,-4.0,-4.0,-3.0,-5.0,0.0,13.0,14.0
1391.0,9.0,0.0,-10.0,-4.0,9.0,-4.0,-4.0,-3.0,-5.0,0.0,13.0,14.0
1392.0,9.0,0.0,-10.0,-4.0,9.0,-4.0,-4.0,-3.0,-5.959999999999743,0.0,13.0,14.0
1393.0,9.0,0.0,-10.0,-4.0,9.0,-4.0,-4.0,-3.0,-6.0,0.0,13.0,14.0
1394.0,9.0,0.0,-10.0,-4.0,9.0,-4.0,-4.0,-3.0,-6.0,0.0,13.0,14.0
1395.0,9.0,0.0,-10.0,-4.0,9.0,-4.0,-4.0,-3.0,-6.0,0.0,13.0,14.0
1396.0,9.0,0.0,-10.0,-4.0,9.0,-4.0,-4.0,-3.0,-6.0,0.0,13.0,14.0
1397.0,9.0,0.0,-10.0,-4.0,9.0,-4.0,-4.0,-3.0,-6.0,0.0,13.0,14.0
1398.0,9.0,0.0,-10.0,-4.0,9.0,-4.0,-4.739999999999934,-3.0,-6.0,0.0,13.0,14.0
1399.0,9.0,0.0,-10.0,-4.0,9.0,-4.0,-5.0,-3.0,-6.0,0.0,13.0,14.0
1400.0,9.0,0.0,-10.0,-4.0,9.0,-4.0,-5.0,-3.0,-6.0,0.0,13.0,14.0
1401.0,9.0,0.0,-10.0,-4.0,9.0,-4.0,-5.0,-4.0,-6.5649999999998885,0.0,13.0,14.0
1402.0,9.129999999999905,0.0,-10.0,-4.0,9.0,-4.0,-5.0,-4.0,-7.0,0.0,13.0,14.0
1403.0,9.694999999999922,0.0,-10.0,-4.0,9.0,-4.0,-5.0,-4.0,-7.0,0.0,13.0,14.0
1404.0,10.0,0.0,-10.0,-4.0,9.0,-4.0,-5.0,-4.0,-7.0,0.0,13.0,14.0
1405.0,10.0,0.0,-10.0,-4.0,9.64999999999991,-4.0,-5.0,-4.0,-7.0,0.0,13.0,14.0
1406.0,10.0,0.0,-10.0,-4.0,10.0,-4.0,-5.0,-4.0,-7.0,0.0,13.0,14.0
1407.0,10.0,0.0,-10.0,-4.0,10.0,-4.0,-5.0,-4.0,-7.0,0.0,13.0,14.0
1408.0,10.0,0.0,-10.0,-4.0,10.0,-4.0,-5.0,-4.0,-7.0,0.0,13.0,14.0
1409.0,10.0,0.0,-10.0,-4.0,10.0,-4.0,-5.0,-4.0,-7.0,0.0,13.0,14.0
1410.0,10.0,0.0,-10.0,-4.0,10.0,-4.0,-5.0,-4.0,-7.14999999999991,0.0,13.0,14.0
1411.0,10.0,0.0,-10.0,-4.0,10.0,-4.0,-5.0,-4.0,-7.714999999999927,0.0,13.0,14.0
1412.0,10.0,0.0,-10.0,-4.0,10.0,-4.0,-5.0,-4.0,-8.0,0.0,13.0,14.0
1413.0,10.0,0.0,-10.0,-4.0,10.0,-4.0,-5.0,-4.0,-8.0,0.0,13.0,14.0
1414.0,10.0,0.0,-10.0,-4.0,10.0,-4.0,-5.0,-4.0,-8.0,0.0,13.0,14.0
1415.0,10.0,0.0,-10.0,-4.0,10.0,-4.0,-5.0,-4.0,-8.0,0.0,13.0,14.0
1416.0,10.0,0.0,-10.0,-4.0,10.0,-4.0,-5.0,-4.0,-8.039999999999882,0.0,13.0,14.0
1417.0,10.0,0.0,-10.0,-4.0,10.0,-4.0,-5.0,-4.0,-8.6049999999999,0.0,13.0,14.0
1418.0,10.0,0.0,-10.0,-4.0,10.0,-4.0,-5.0,-4.0,-9.0,0.0,13.0,14.0
1419.0,10.0,-0.23499999999993193,-10.0,-4.0,10.0,-4.0,-5.0,-4.0,-9.0,0.0,13.0,14.0
1420.0,10.0,-0.7999999999999486,-10.0,-4.0,10.0,-4.0,-5.0,-4.0,-9.0,0.0,13.0,14.0
